2599.9351	75.4294
2600.0557	75.4827
2600.1760	75.4887
2600.2966	75.4275
2600.4172	75.322
2600.5376	75.214
2600.6582	75.1389
2600.7788	75.1149
2600.8994	75.1442
2601.0198	75.2133
2601.1404	75.2909
2601.2610	75.3355
2601.3813	75.3168
2601.5020	75.2376
2601.6226	75.1357
2601.7429	75.0597
2601.8635	75.038
2601.9841	75.0651
2602.1045	75.1146
2602.2251	75.1619
2602.3457	75.196
2602.4661	75.214
2602.5867	75.2111
2602.7073	75.1807
2602.8279	75.1251
2602.9482	75.0644
2603.0688	75.0318
2603.1895	75.0565
2603.3098	75.1468
2603.4304	75.2809
2603.5510	75.4097
2603.6714	75.4755
2603.7920	75.4406
2603.9126	75.3122
2604.0330	75.1447
2604.1536	75.0131
2604.2742	74.9674
2604.3945	75.0003
2604.5151	75.0542
2604.6357	75.0673
2604.7563	75.0204
2604.8767	74.9461
2604.9973	74.8975
2605.1179	74.907
2605.2383	74.9674
2605.3589	75.0455
2605.4795	75.1075
2605.5999	75.134
2605.7205	75.1208
2605.8411	75.0771
2605.9614	75.0268
2606.0820	75.0039
2606.2026	75.0334
2606.3230	75.1104
2606.4436	75.1967
2606.5642	75.2442
2606.6848	75.2277
2606.8052	75.1612
2606.9258	75.0857
2607.0464	75.0417
2607.1667	75.0524
2607.2874	75.119
2607.4080	75.2218
2607.5283	75.3217
2607.6489	75.3734
2607.7695	75.3521
2607.8899	75.2778
2608.0105	75.2076
2608.1311	75.1897
2608.2515	75.2159
2608.3721	75.223
2608.4927	75.1539
2608.6133	75.0227
2608.7336	74.9154
2608.8542	74.9165
2608.9749	75.0274
2609.0952	75.1556
2609.2158	75.1941
2609.3364	75.1168
2609.4568	74.9962
2609.5774	74.9281
2609.6980	74.9424
2609.8184	74.987
2609.9390	74.992
2610.0596	74.9461
2610.1799	74.9062
2610.3005	74.9334
2610.4211	75.0269
2610.5417	75.1214
2610.6621	75.1487
2610.7827	75.0965
2610.9033	75.0121
2611.0237	74.9519
2611.1443	74.9327
2611.2649	74.928
2611.3853	74.9069
2611.5059	74.8681
2611.6265	74.8395
2611.7468	74.8472
2611.8674	74.8888
2611.9880	74.9337
2612.1084	74.9485
2612.2290	74.9238
2612.3496	74.8815
2612.4702	74.8598
2612.5906	74.8875
2612.7112	74.9638
2612.8318	75.057
2612.9521	75.1213
2613.0728	75.1234
2613.1934	75.0606
2613.3137	74.9597
2613.4343	74.8601
2613.5549	74.7953
2613.6753	74.7812
2613.7959	74.813
2613.9165	74.8688
2614.0369	74.9175
2614.1575	74.9333
2614.2781	74.9117
2614.3987	74.8746
2614.5190	74.8547
2614.6396	74.8677
2614.7603	74.898
2614.8806	74.9123
2615.0012	74.8921
2615.1218	74.8546
2615.2422	74.8398
2615.3628	74.8759
2615.4834	74.953
2615.6038	75.0297
2615.7244	75.0627
2615.8450	75.034
2615.9653	74.9572
2616.0859	74.8672
2616.2065	74.8016
2616.3271	74.7824
2616.4475	74.8013
2616.5681	74.8169
2616.6887	74.7762
2616.8091	74.6581
2616.9297	74.5034
2617.0503	74.3969
2617.1707	74.4019
2617.2913	74.5013
2617.4119	74.605
2617.5322	74.6251
2617.6528	74.5544
2617.7734	74.4716
2617.8938	74.4679
2618.0144	74.5641
2618.1350	74.698
2618.2556	74.7873
2618.3760	74.8042
2618.4966	74.7876
2618.6172	74.7892
2618.7375	74.8176
2618.8582	74.8365
2618.9788	74.8115
2619.0991	74.7501
2619.2197	74.6938
2619.3403	74.678
2619.4607	74.703
2619.5813	74.7416
2619.7019	74.7646
2619.8223	74.758
2619.9429	74.7217
2620.0635	74.6666
2620.1841	74.6155
2620.3044	74.597
2620.4250	74.6245
2620.5457	74.678
2620.6660	74.7142
2620.7866	74.7059
2620.9072	74.6713
2621.0276	74.6554
2621.1482	74.678
2621.2688	74.7046
2621.3892	74.6808
2621.5098	74.5965
2621.6304	74.508
2621.7507	74.4852
2621.8713	74.5341
2621.9919	74.5821
2622.1125	74.5487
2622.2329	74.4325
2622.3535	74.3207
2622.4741	74.304
2622.5945	74.3839
2622.7151	74.4719
2622.8357	74.48
2622.9561	74.4086
2623.0767	74.3394
2623.1973	74.3412
2623.3176	74.3852
2623.4382	74.3566
2623.5588	74.1548
2623.6792	73.7908
2623.7998	73.3986
2623.9204	73.1534
2624.0410	73.1614
2624.1614	73.397
2624.2820	73.7264
2624.4026	73.9944
2624.5229	74.1173
2624.6436	74.1251
2624.7642	74.1219
2624.8845	74.1759
2625.0051	74.2164
2625.1257	74.045
2625.2461	73.4883
2625.3667	72.5901
2625.4873	71.6817
2625.6077	71.2239
2625.7283	71.4853
2625.8489	72.3232
2625.9695	73.2904
2626.0898	73.9632
2626.2104	74.2008
2626.3311	74.1581
2626.4514	74.0898
2626.5720	74.1293
2626.6926	74.2262
2626.8130	74.262
2626.9336	74.1961
2627.0542	74.0984
2627.1746	74.0632
2627.2952	74.1128
2627.4158	74.1888
2627.5361	74.2205
2627.6567	74.1866
2627.7773	74.1151
2627.8979	74.0425
2628.0183	73.9865
2628.1389	73.9523
2628.2595	73.9445
2628.3799	73.9603
2628.5005	73.9782
2628.6211	73.9715
2628.7415	73.9422
2628.8621	73.9349
2628.9827	74.0006
2629.1030	74.1372
2629.2236	74.2716
2629.3442	74.3112
2629.4646	74.2237
2629.5852	74.0675
2629.7058	73.9414
2629.8264	73.9033
2629.9468	73.9322
2630.0674	73.9617
2630.1880	73.9457
2630.3083	73.8938
2630.4290	73.8529
2630.5496	73.866
2630.6699	73.9476
2630.7905	74.0821
2630.9111	74.2332
2631.0315	74.3514
2631.1521	74.3904
2631.2727	74.3336
2631.3931	74.2137
2631.5137	74.0974
2631.6343	74.0391
2631.7549	74.0408
2631.8752	74.0571
2631.9958	74.044
2632.1165	74.0035
2632.2368	73.9781
2632.3574	74.001
2632.4780	74.0568
2632.5984	74.0954
2632.7190	74.0852
2632.8396	74.0488
2632.9600	74.042
2633.0806	74.0937
2633.2012	74.1693
2633.3215	74.1934
2633.4421	74.1148
2633.5627	73.9555
2633.6833	73.802
2633.8037	73.7464
2633.9243	73.8272
2634.0449	74.0082
2634.1653	74.2021
2634.2859	74.3176
2634.4065	74.3064
2634.5269	74.1856
2634.6475	74.0279
2634.7681	73.9217
2634.8884	73.9193
2635.0090	74.0056
2635.1296	74.1092
2635.2500	74.154
2635.3706	74.1109
2635.4912	74.011
2635.6118	73.9127
2635.7322	73.8566
2635.8528	73.8448
2635.9734	73.8571
2636.0938	73.88
2636.2144	73.9176
2636.3350	73.9786
2636.4553	74.0573
2636.5759	74.1325
2636.6965	74.1813
2636.8169	74.1921
2636.9375	74.1623
2637.0581	74.09
2637.1785	73.9744
2637.2991	73.8285
2637.4197	73.6856
2637.5403	73.5858
2637.6606	73.5505
2637.7813	73.5697
2637.9019	73.6155
2638.0222	73.6688
2638.1428	73.7319
2638.2634	73.8126
2638.3838	73.8998
2638.5044	73.9621
2638.6250	73.9747
2638.7454	73.9492
2638.8660	73.9291
2638.9866	73.9493
2639.1069	73.9981
2639.2275	74.0221
2639.3481	73.9745
2639.4688	73.8641
2639.5891	73.7559
2639.7097	73.7218
2639.8303	73.7828
2639.9507	73.8944
2640.0713	73.9851
2640.1919	74.0139
2640.3123	73.9958
2640.4329	73.9773
2640.5535	73.9909
2640.6738	74.0265
2640.7944	74.0435
2640.9150	74.0083
2641.0354	73.923
2641.1560	73.8231
2641.2766	73.7495
2641.3972	73.7197
2641.5176	73.7194
2641.6382	73.7215
2641.7588	73.7148
2641.8792	73.714
2641.9998	73.7393
2642.1204	73.7831
2642.2407	73.7995
2642.3613	73.7356
2642.4819	73.5856
2642.6023	73.4145
2642.7229	73.3221
2642.8435	73.3664
2642.9639	73.5136
2643.0845	73.6603
2643.2051	73.7117
2643.3257	73.6525
2643.4460	73.5512
2643.5667	73.4948
2643.6873	73.5176
2643.8076	73.5867
2643.9282	73.6488
2644.0488	73.6834
2644.1692	73.7117
2644.2898	73.7574
2644.4104	73.8064
2644.5308	73.8105
2644.6514	73.7326
2644.7720	73.5898
2644.8923	73.451
2645.0129	73.3865
2645.1335	73.414
2645.2542	73.484
2645.3745	73.5187
2645.4951	73.4733
2645.6157	73.3714
2645.7361	73.2872
2645.8567	73.2836
2645.9773	73.3582
2646.0977	73.4407
2646.2183	73.4503
2646.3389	73.3668
2646.4592	73.2542
2646.5798	73.2094
2646.7004	73.2784
2646.8208	73.4139
2646.9414	73.5139
2647.0620	73.5076
2647.1826	73.4111
2647.3030	73.3038
2647.4236	73.254
2647.5442	73.2679
2647.6646	73.3049
2647.7852	73.3292
2647.9058	73.3386
2648.0261	73.3465
2648.1467	73.3485
2648.2673	73.3211
2648.3877	73.2538
2648.5083	73.1716
2648.6289	73.1151
2648.7493	73.0982
2648.8699	73.0951
2648.9905	73.0771
2649.1111	73.056
2649.2314	73.0749
2649.3521	73.1413
2649.4727	73.1679
2649.5930	72.9985
2649.7136	72.5177
2649.8342	71.7644
2649.9546	70.9657
2650.0752	70.4535
2650.1958	70.4895
2650.3162	71.0954
2650.4368	72.0163
2650.5574	72.8555
2650.6777	73.2961
2650.7983	73.2818
2650.9189	73.0401
2651.0396	72.8978
2651.1599	72.9781
2651.2805	73.0251
2651.4011	72.5535
2651.5215	71.2538
2651.6421	69.3546
2651.7627	67.6506
2651.8831	67.068
2652.0037	67.9773
2652.1243	69.8756
2652.2446	71.8054
2652.3652	73.0373
2652.4858	73.4197
2652.6062	73.2744
2652.7268	73.035
2652.8474	72.9241
2652.9680	72.9051
2653.0884	72.8662
2653.2090	72.792
2653.3296	72.7601
2653.4500	72.824
2653.5706	72.9417
2653.6912	73.029
2653.8115	73.0553
2653.9321	73.06
2654.0527	73.0825
2654.1731	73.0996
2654.2937	73.0487
2654.4143	72.9073
2654.5347	72.731
2654.6553	72.6045
2654.7759	72.5646
2654.8965	72.5801
2655.0168	72.6039
2655.1375	72.6284
2655.2581	72.6824
2655.3784	72.7802
2655.4990	72.8925
2655.6196	72.9744
2655.7400	73.0111
2655.8606	73.0216
2655.9812	73.0194
2656.1016	72.984
2656.2222	72.8879
2656.3428	72.7517
2656.4631	72.6551
2656.5837	72.6775
2656.7043	72.8215
2656.8250	73.0038
2656.9453	73.1275
2657.0659	73.1651
2657.1865	73.1678
2657.3069	73.1977
2657.4275	73.2567
2657.5481	73.2881
2657.6685	73.2458
2657.7891	73.1552
2657.9097	73.0996
2658.0300	73.1432
2658.1506	73.2667
2658.2712	73.3766
2658.3916	73.3785
2658.5122	73.2476
2658.6328	73.0401
2658.7534	72.8455
2658.8738	72.7262
2658.9944	72.6922
2659.1150	72.7197
2659.2354	72.7865
2659.3560	72.8897
2659.4766	73.0323
2659.5969	73.1946
2659.7175	73.3258
2659.8381	73.3702
2659.9585	73.3128
2660.0791	73.1996
2660.1997	73.11
2660.3201	73.0993
2660.4407	73.1624
2660.5613	73.2487
2660.6819	73.3145
2660.8022	73.3585
2660.9229	73.4079
2661.0435	73.4737
2661.1638	73.527
2661.2844	73.5219
2661.4050	73.4411
2661.5254	73.3142
2661.6460	73.1901
2661.7666	73.0967
2661.8870	73.031
2662.0076	72.9851
2662.1282	72.9711
2662.2485	73.0135
2662.3691	73.117
2662.4897	73.2482
2662.6104	73.3537
2662.7307	73.3973
2662.8513	73.3769
2662.9719	73.3116
2663.0923	73.2228
2663.2129	73.1318
2663.3335	73.0708
2663.4539	73.0799
2663.5745	73.1819
2663.6951	73.356
2663.8154	73.5418
2663.9360	73.6757
2664.0566	73.7255
2664.1770	73.6959
2664.2976	73.6107
2664.4182	73.4967
2664.5388	73.383
2664.6592	73.3003
2664.7798	73.2672
2664.9004	73.2738
2665.0208	73.2869
2665.1414	73.2833
2665.2620	73.2755
2665.3823	73.298
2665.5029	73.3614
2665.6235	73.4259
2665.7439	73.4285
2665.8645	73.3422
2665.9851	73.2053
2666.1055	73.0866
2666.2261	73.0242
2666.3467	73.0027
2666.4673	72.9902
2666.5876	72.9881
2666.7083	73.0337
2666.8289	73.1509
2666.9492	73.308
2667.0698	73.431
2667.1904	73.461
2667.3108	73.3942
2667.4314	73.2667
2667.5520	73.1124
2667.6724	72.9447
2667.7930	72.7795
2667.9136	72.6587
2668.0339	72.6317
2668.1545	72.7088
2668.2751	72.8377
2668.3958	72.9384
2668.5161	72.9661
2668.6367	72.9395
2668.7573	72.9092
2668.8777	72.9052
2668.9983	72.9183
2669.1189	72.927
2669.2393	72.9273
2669.3599	72.9292
2669.4805	72.9278
2669.6008	72.892
2669.7214	72.7916
2669.8420	72.6359
2669.9624	72.4795
2670.0830	72.3857
2670.2036	72.3818
2670.3242	72.4433
2670.4446	72.5155
2670.5652	72.5474
2670.6858	72.5181
2670.8062	72.4445
2670.9268	72.3717
2671.0474	72.3476
2671.1677	72.3885
2671.2883	72.4586
2671.4089	72.4911
2671.5293	72.4425
2671.6499	72.3364
2671.7705	72.2466
2671.8909	72.2314
2672.0115	72.2786
2672.1321	72.3176
2672.2527	72.288
2672.3730	72.1965
2672.4937	72.1048
2672.6143	72.0672
2672.7346	72.0847
2672.8552	72.1174
2672.9758	72.1281
2673.0962	72.1052
2673.2168	72.0501
2673.3374	71.9615
2673.4578	71.8449
2673.5784	71.7297
2673.6990	71.6572
2673.8193	71.6429
2673.9399	71.6605
2674.0605	71.6781
2674.1812	71.7093
2674.3015	71.8032
2674.4221	71.9673
2674.5427	72.1113
2674.6631	72.1038
2674.7837	71.913
2674.9043	71.6771
2675.0247	71.5908
2675.1453	71.6766
2675.2659	71.6705
2675.3862	71.1781
2675.5068	69.9978
2675.6274	68.3624
2675.7478	66.9165
2675.8684	66.379
2675.9890	67.0557
2676.1096	68.6075
2676.2300	70.2973
2676.3506	71.4528
2676.4712	71.7987
2676.5916	71.5457
2676.7122	71.2233
2676.8328	71.2834
2676.9531	71.6795
2677.0737	71.7751
2677.1943	70.7417
2677.3147	68.2178
2677.4353	64.8102
2677.5559	62.0517
2677.6763	61.5375
2677.7969	63.5976
2677.9175	66.9634
2678.0381	69.9206
2678.1584	71.5116
2678.2791	71.8415
2678.3997	71.646
2678.5200	71.5792
2678.6406	71.7506
2678.7612	71.857
2678.8816	71.6693
2679.0022	71.3103
2679.1228	71.0979
2679.2432	71.1939
2679.3638	71.4587
2679.4844	71.6379
2679.6047	71.6286
2679.7253	71.534
2679.8459	71.494
2679.9666	71.5202
2680.0869	71.5217
2680.2075	71.4575
2680.3281	71.4056
2680.4485	71.4683
2680.5691	71.6373
2680.6897	71.7917
2680.8101	71.8295
2680.9307	71.7739
2681.0513	71.73
2681.1716	71.7532
2681.2922	71.7915
2681.4128	71.7674
2681.5332	71.6869
2681.6538	71.6375
2681.7744	71.6761
2681.8950	71.7466
2682.0154	71.7379
2682.1360	71.6184
2682.2566	71.4895
2682.3770	71.4891
2682.4976	71.6479
2682.6182	71.8538
2682.7385	71.9608
2682.8591	71.9214
2682.9797	71.8111
2683.1001	71.7355
2683.2207	71.7333
2683.3413	71.7716
2683.4617	71.8112
2683.5823	71.8484
2683.7029	71.8929
2683.8235	71.9276
2683.9438	71.9171
2684.0645	71.8544
2684.1851	71.7833
2684.3054	71.7597
2684.4260	71.7941
2684.5466	71.8432
2684.6670	71.8611
2684.7876	71.8467
2684.9082	71.8358
2685.0286	71.8549
2685.1492	71.8956
2685.2698	71.9366
2685.3901	71.978
2685.5107	72.039
2685.6313	72.124
2685.7520	72.2061
2685.8723	72.2534
2685.9929	72.2645
2686.1135	72.2667
2686.2339	72.2784
2686.3545	72.2868
2686.4751	72.2735
2686.5955	72.2543
2686.7161	72.2726
2686.8367	72.3445
2686.9570	72.4203
2687.0776	72.4218
2687.1982	72.3263
2687.3186	72.2028
2687.4392	72.1512
2687.5598	72.205
2687.6804	72.301
2687.8008	72.351
2687.9214	72.3344
2688.0420	72.3128
2688.1624	72.3535
2688.2830	72.456
2688.4036	72.5629
2688.5239	72.6295
2688.6445	72.6623
2688.7651	72.6834
2688.8855	72.6786
2689.0061	72.6054
2689.1267	72.4569
2689.2471	72.2968
2689.3677	72.2086
2689.4883	72.2107
2689.6089	72.2373
2689.7292	72.2186
2689.8499	72.1705
2689.9705	72.182
2690.0908	72.3076
2690.2114	72.4845
2690.3320	72.5742
2690.4524	72.494
2690.5730	72.298
2690.6936	72.1211
2690.8140	72.0516
2690.9346	72.0721
2691.0552	72.1181
2691.1755	72.1713
2691.2961	72.273
2691.4167	72.4485
2691.5374	72.6409
2691.6577	72.7413
2691.7783	72.6863
2691.8989	72.5146
2692.0193	72.3289
2692.1399	72.208
2692.2605	72.1632
2692.3809	72.1674
2692.5015	72.2013
2692.6221	72.2597
2692.7424	72.3272
2692.8630	72.3734
2692.9836	72.384
2693.1040	72.3803
2693.2246	72.3915
2693.3452	72.405
2693.4658	72.3644
2693.5862	72.2293
2693.7068	72.0336
2693.8274	71.8704
2693.9478	71.8133
2694.0684	71.8579
2694.1890	71.9459
2694.3093	72.0347
2694.4299	72.1219
2694.5505	72.1997
2694.6709	72.2104
2694.7915	72.0818
2694.9121	71.8192
2695.0325	71.5433
2695.1531	71.4063
2695.2737	71.457
2695.3943	71.5969
2695.5146	71.6761
2695.6353	71.6292
2695.7559	71.5134
2695.8762	71.4235
2695.9968	71.3869
2696.1174	71.3519
2696.2378	71.2663
2696.3584	71.1414
2696.4790	71.0295
2696.5994	70.9593
2696.7200	70.9148
2696.8406	70.8785
2696.9609	70.8654
2697.0815	70.8946
2697.2021	70.9375
2697.3228	70.927
2697.4431	70.8352
2697.5637	70.7257
2697.6843	70.6985
2697.8047	70.775
2697.9253	70.8603
2698.0459	70.8388
2698.1663	70.7022
2698.2869	70.5567
2698.4075	70.4951
2698.5278	70.4827
2698.6484	70.4028
2698.7690	70.2141
2698.8894	70.0255
2699.0100	69.9823
2699.1306	70.0877
2699.2512	70.1822
2699.3716	70.128
2699.4922	69.9808
2699.6128	69.935
2699.7332	70.0862
2699.8538	70.2872
2699.9744	70.3027
2700.0947	70.1045
2700.2153	69.9422
2700.3359	70.0393
2700.4563	70.2032
2700.5769	69.8179
2700.6975	68.3155
2700.8179	65.74
2700.9385	62.9646
2701.0591	61.3137
2701.1797	61.6573
2701.3000	63.7059
2701.4207	66.3159
2701.5413	68.3761
2701.6616	69.3638
2701.7822	69.3958
2701.9028	69.0062
2702.0232	68.7894
2702.1438	68.9857
2702.2644	69.2178
2702.3848	68.6233
2702.5054	66.3785
2702.6260	62.3718
2702.7463	57.7253
2702.8669	54.6827
2702.9875	55.1755
2703.1082	58.8894
2703.2285	63.6009
2703.3491	67.2304
2703.4697	68.9833
2703.5901	69.2895
2703.7107	69.1205
2703.8313	69.1679
2703.9517	69.4584
2704.0723	69.6541
2704.1929	69.5831
2704.3132	69.4165
2704.4338	69.4092
2704.5544	69.5853
2704.6748	69.7404
2704.7954	69.7159
2704.9160	69.5881
2705.0366	69.5642
2705.1570	69.7291
2705.2776	69.9492
2705.3982	70.0331
2705.5186	69.9438
2705.6392	69.8234
2705.7598	69.8242
2705.8801	69.9578
2706.0007	70.1238
2706.1213	70.2458
2706.2417	70.3337
2706.3623	70.4119
2706.4829	70.4356
2706.6033	70.3288
2706.7239	70.1051
2706.8445	69.9085
2706.9651	69.8999
2707.0854	70.0956
2707.2061	70.3449
2707.3267	70.4791
2707.4470	70.4712
2707.5676	70.4374
2707.6882	70.4938
2707.8086	70.6346
2707.9292	70.763
2708.0498	70.8196
2708.1702	70.8472
2708.2908	70.9209
2708.4114	71.0418
2708.5317	71.1254
2708.6523	71.1002
2708.7729	70.9952
2708.8936	70.9154
2709.0139	70.9378
2709.1345	71.0481
2709.2551	71.1806
2709.3755	71.297
2709.4961	71.4063
2709.6167	71.5153
2709.7371	71.588
2709.8577	71.5741
2709.9783	71.4711
2710.0986	71.337
2710.2192	71.2349
2710.3398	71.1763
2710.4602	71.1329
2710.5808	71.095
2710.7014	71.0935
2710.8220	71.1523
2710.9424	71.2344
2711.0630	71.2637
2711.1836	71.2122
2711.3040	71.1507
2711.4246	71.1898
2711.5452	71.3632
2711.6655	71.5813
2711.7861	71.7137
2711.9067	71.7114
2712.0271	71.6425
2712.1477	71.6081
2712.2683	71.6377
2712.3887	71.6779
2712.5093	71.6738
2712.6299	71.6345
2712.7505	71.6085
2712.8708	71.6106
2712.9915	71.6012
2713.1121	71.5475
2713.2324	71.4853
2713.3530	71.4963
2713.4736	71.6184
2713.5940	71.793
2713.7146	71.9158
2713.8352	71.9406
2713.9556	71.9177
2714.0762	71.9268
2714.1968	71.9859
2714.3171	72.0401
2714.4377	72.0333
2714.5583	71.9734
2714.6790	71.9152
2714.7993	71.8912
2714.9199	71.8821
2715.0405	71.8598
2715.1609	71.8389
2715.2815	71.8628
2715.4021	71.9358
2715.5225	71.9906
2715.6431	71.9461
2715.7637	71.7952
2715.8840	71.6204
2716.0046	71.5126
2716.1252	71.4816
2716.2456	71.4615
2716.3662	71.4026
2716.4868	71.3365
2716.6074	71.336
2716.7278	71.416
2716.8484	71.497
2716.9690	71.4813
2717.0894	71.3571
2717.2100	71.2115
2717.3306	71.138
2717.4509	71.1426
2717.5715	71.1524
2717.6921	71.1095
2717.8125	71.0356
2717.9331	70.9956
2718.0537	71.0106
2718.1741	71.028
2718.2947	70.9833
2718.4153	70.8764
2718.5359	70.7715
2718.6563	70.7268
2718.7769	70.742
2718.8975	70.7802
2719.0178	70.8265
2719.1384	70.8993
2719.2590	70.9989
2719.3794	71.0656
2719.5000	71.0143
2719.6206	70.817
2719.7410	70.5408
2719.8616	70.2952
2719.9822	70.1406
2720.1025	70.0581
2720.2231	70.006
2720.3438	69.9802
2720.4644	70
2720.5847	70.0485
2720.7053	70.0578
2720.8259	69.9763
2720.9463	69.8402
2721.0669	69.7507
2721.1875	69.7673
2721.3079	69.8343
2721.4285	69.8367
2721.5491	69.7279
2721.6694	69.5842
2721.7900	69.5191
2721.9106	69.5536
2722.0310	69.5944
2722.1516	69.5475
2722.2722	69.4297
2722.3928	69.3426
2722.5132	69.3379
2722.6338	69.3405
2722.7544	69.2327
2722.8748	69.0049
2722.9954	68.7881
2723.1160	68.7183
2723.2363	68.7839
2723.3569	68.8383
2723.4775	68.7716
2723.5979	68.6367
2723.7185	68.5755
2723.8391	68.6304
2723.9595	68.6758
2724.0801	68.57
2724.2007	68.3456
2724.3213	68.1942
2724.4417	68.2381
2724.5623	68.3526
2724.6829	68.2899
2724.8032	67.9978
2724.9238	67.7452
2725.0444	67.8217
2725.1648	68.0547
2725.2854	67.7012
2725.4060	65.9374
2725.5264	62.5823
2725.6470	58.5599
2725.7676	55.6994
2725.8879	55.5878
2726.0085	58.1755
2726.1292	61.8951
2726.2498	65.0682
2726.3701	66.8359
2726.4907	67.2391
2726.6113	66.8874
2726.7317	66.4982
2726.8523	66.453
2726.9729	66.5279
2727.0933	65.9493
2727.2139	63.7906
2727.3345	59.5657
2727.4548	53.8401
2727.5754	48.6223
2727.6960	46.7969
2727.8164	49.6924
2727.9370	55.4563
2728.0576	61.1544
2728.1782	64.9821
2728.2986	66.6741
2728.4192	67.0282
2728.5398	67.0847
2728.6602	67.3792
2728.7808	67.7885
2728.9014	67.9879
2729.0217	67.9256
2729.1423	67.8458
2729.2629	67.9572
2729.3833	68.1836
2729.5039	68.2791
2729.6245	68.1372
2729.7449	67.9186
2729.8655	67.8669
2729.9861	68.0373
2730.1067	68.2526
2730.2271	68.3125
2730.3477	68.2006
2730.4683	68.0686
2730.5886	68.0414
2730.7092	68.0826
2730.8298	68.0704
2730.9502	67.9689
2731.0708	67.8852
2731.1914	67.9531
2731.3118	68.1849
2731.4324	68.4636
2731.5530	68.666
2731.6733	68.7655
2731.7939	68.8092
2731.9146	68.8272
2732.0352	68.8007
2732.1555	68.7252
2732.2761	68.6684
2732.3967	68.728
2732.5171	68.9226
2732.6377	69.1501
2732.7583	69.2772
2732.8787	69.2695
2732.9993	69.2162
2733.1199	69.2249
2733.2402	69.3073
2733.3608	69.385
2733.4814	69.3985
2733.6018	69.3855
2733.7224	69.4377
2733.8430	69.5914
2733.9636	69.7793
2734.0840	69.9009
2734.2046	69.922
2734.3252	69.8915
2734.4456	69.8714
2734.5662	69.8749
2734.6868	69.8816
2734.8071	69.8936
2734.9277	69.9464
2735.0483	70.0547
2735.1687	70.1717
2735.2893	70.2291
2735.4099	70.2204
2735.5303	70.221
2735.6509	70.308
2735.7715	70.4652
2735.8921	70.5898
2736.0125	70.6033
2736.1331	70.5435
2736.2537	70.5276
2736.3740	70.6265
2736.4946	70.7935
2736.6152	70.9294
2736.7356	71.0009
2736.8562	71.0682
2736.9768	71.191
2737.0972	71.3321
2737.2178	71.3859
2737.3384	71.3063
2737.4587	71.1785
2737.5793	71.141
2737.7000	71.2384
2737.8206	71.375
2737.9409	71.4284
2738.0615	71.3922
2738.1821	71.3774
2738.3025	71.4719
2738.4231	71.6249
2738.5437	71.6965
2738.6641	71.621
2738.7847	71.4908
2738.9053	71.4571
2739.0256	71.5544
2739.1462	71.6539
2739.2668	71.6068
2739.3872	71.4152
2739.5078	71.2376
2739.6284	71.2242
2739.7490	71.3627
2739.8694	71.5027
2739.9900	71.5212
2740.1106	71.438
2740.2310	71.3625
2740.3516	71.3521
2740.4722	71.3514
2740.5925	71.2755
2740.7131	71.1259
2740.8337	70.9978
2740.9541	70.9763
2741.0747	71.0486
2741.1953	71.1312
2741.3157	71.1655
2741.4363	71.1596
2741.5569	71.1373
2741.6775	71.079
2741.7979	70.9435
2741.9185	70.7467
2742.0391	70.5818
2742.1594	70.5327
2742.2800	70.5717
2742.4006	70.5743
2742.5210	70.4495
2742.6416	70.2442
2742.7622	70.0988
2742.8826	70.0977
2743.0032	70.1851
2743.1238	70.2392
2743.2441	70.2129
2743.3647	70.175
2743.4854	70.2058
2743.6060	70.2771
2743.7263	70.2688
2743.8469	70.1069
2743.9675	69.8558
2744.0879	69.6516
2744.2085	69.5481
2744.3291	69.4601
2744.4495	69.274
2744.5701	68.9962
2744.6907	68.7612
2744.8110	68.6864
2744.9316	68.738
2745.0522	68.7647
2745.1726	68.6618
2745.2932	68.4782
2745.4138	68.3504
2745.5344	68.3465
2745.6548	68.402
2745.7754	68.4059
2745.8960	68.3201
2746.0164	68.1919
2746.1370	68.064
2746.2576	67.915
2746.3779	67.7098
2746.4985	67.4861
2746.6191	67.3468
2746.7395	67.3438
2746.8601	67.3991
2746.9807	67.3757
2747.1011	67.229
2747.2217	67.0578
2747.3423	66.9832
2747.4629	66.9947
2747.5833	66.9542
2747.7039	66.7662
2747.8245	66.5109
2747.9448	66.3669
2748.0654	66.3979
2748.1860	66.4672
2748.3064	66.4006
2748.4270	66.2032
2748.5476	66.0626
2748.6680	66.1052
2748.7886	66.1953
2748.9092	66.0647
2749.0295	65.659
2749.1501	65.2734
2749.2708	65.216
2749.3914	65.2555
2749.5117	64.4967
2749.6323	61.9621
2749.7529	57.4548
2749.8733	52.143
2749.9939	48.4278
2750.1145	48.476
2750.2349	52.0851
2750.3555	56.9728
2750.4761	60.9935
2750.5964	63.2452
2750.7170	63.9275
2750.8376	63.7715
2750.9580	63.4684
2751.0786	63.2973
2751.1992	63.0201
2751.3198	62.0048
2751.4402	59.5022
2751.5608	55.0393
2751.6814	48.9224
2751.8018	42.7924
2751.9224	39.6668
2752.0430	41.8104
2752.1633	47.8676
2752.2839	54.5826
2752.4045	59.6918
2752.5249	62.53
2752.6455	63.6211
2752.7661	63.9663
2752.8865	64.3083
2753.0071	64.7954
2753.1277	65.2107
2753.2483	65.4007
2753.3687	65.4455
2753.4893	65.5006
2753.6099	65.5942
2753.7302	65.6404
2753.8508	65.6131
2753.9714	65.6253
2754.0918	65.8022
2754.2124	66.1059
2754.3330	66.3429
2754.4534	66.3666
2754.5740	66.2456
2754.6946	66.1999
2754.8149	66.3679
2754.9355	66.6617
2755.0562	66.8653
2755.1768	66.8651
2755.2971	66.7602
2755.4177	66.7448
2755.5383	66.8985
2755.6587	67.1148
2755.7793	67.2355
2755.8999	67.2243
2756.0203	67.1925
2756.1409	67.2655
2756.2615	67.4493
2756.3818	67.638
2756.5024	67.7371
2756.6230	67.7549
2756.7434	67.77
2756.8640	67.8304
2756.9846	67.909
2757.1052	67.958
2757.2256	67.9809
2757.3462	68.031
2757.4668	68.1418
2757.5872	68.2812
2757.7078	68.3892
2757.8284	68.4559
2757.9487	68.5434
2758.0693	68.7202
2758.1899	68.9785
2758.3103	69.2291
2758.4309	69.3795
2758.5515	69.4139
2758.6719	69.3961
2758.7925	69.4029
2758.9131	69.4632
2759.0337	69.5569
2759.1541	69.6573
2759.2747	69.7558
2759.3953	69.8492
2759.5156	69.9214
2759.6362	69.9551
2759.7568	69.9639
2759.8772	69.9966
2759.9978	70.0965
2760.1184	70.2532
2760.2388	70.4031
2760.3594	70.4824
2760.4800	70.4836
2760.6003	70.4596
2760.7209	70.4727
2760.8416	70.544
2760.9622	70.6482
2761.0825	70.7487
2761.2031	70.8292
2761.3237	70.8965
2761.4441	70.9623
2761.5647	71.0315
2761.6853	71.1012
2761.8057	71.1648
2761.9263	71.2101
2762.0469	71.2244
2762.1672	71.2085
2762.2878	71.1877
2762.4084	71.1971
2762.5288	71.2479
2762.6494	71.3098
2762.7700	71.3362
2762.8906	71.311
2763.0110	71.2634
2763.1316	71.2297
2763.2522	71.2038
2763.3726	71.1393
2763.4932	71.0099
2763.6138	70.8596
2763.7341	70.7746
2763.8547	70.7968
2763.9753	70.8736
2764.0957	70.9118
2764.2163	70.8867
2764.3369	70.8822
2764.4573	71.0041
2764.5779	71.2475
2764.6985	71.4624
2764.8191	71.4731
2764.9395	71.237
2765.0601	70.8862
2765.1807	70.6087
2765.3010	70.4922
2765.4216	70.4798
2765.5422	70.4658
2765.6626	70.409
2765.7832	70.3439
2765.9038	70.2976
2766.0242	70.2285
2766.1448	70.0693
2766.2654	69.819
2766.3857	69.5685
2766.5063	69.4216
2766.6270	69.3964
2766.7476	69.4181
2766.8679	69.4087
2766.9885	69.3652
2767.1091	69.3383
2767.2295	69.3442
2767.3501	69.3248
2767.4707	69.2085
2767.5911	68.9981
2767.7117	68.7811
2767.8323	68.643
2767.9526	68.5834
2768.0732	68.5255
2768.1938	68.403
2768.3142	68.2197
2768.4348	68.0206
2768.5554	67.8246
2768.6760	67.615
2768.7964	67.3955
2768.9170	67.229
2769.0376	67.1856
2769.1580	67.2467
2769.2786	67.2879
2769.3992	67.184
2769.5195	66.9333
2769.6401	66.6615
2769.7607	66.4941
2769.8811	66.4306
2770.0017	66.3604
2770.1223	66.1978
2770.2427	65.9803
2770.3633	65.8208
2770.4839	65.7769
2770.6045	65.794
2770.7249	65.779
2770.8455	65.7039
2770.9661	65.6087
2771.0864	65.5086
2771.2070	65.3417
2771.3276	65.0426
2771.4480	64.654
2771.5686	64.3225
2771.6892	64.1518
2771.8096	64.0773
2771.9302	63.9387
2772.0508	63.689
2772.1711	63.4855
2772.2917	63.5177
2772.4124	63.7411
2772.5330	63.8479
2772.6533	63.5721
2772.7739	63.0093
2772.8945	62.5417
2773.0149	62.324
2773.1355	61.8309
2773.2561	60.0337
2773.3765	56.1509
2773.4971	50.4684
2773.6177	44.8306
2773.7380	42.1827
2773.8586	44.179
2773.9792	49.2294
2774.0996	54.5065
2774.2202	58.2443
2774.3408	60.0643
2774.4614	60.4911
2774.5818	60.3133
2774.7024	60.0413
2774.8230	59.6747
2774.9434	58.7985
2775.0640	56.8239
2775.1846	53.2454
2775.3049	47.9309
2775.4255	41.5064
2775.5461	35.8162
2775.6665	33.7909
2775.7871	36.9719
2775.9077	43.3709
2776.0281	50.0259
2776.1487	55.2112
2776.2693	58.5054
2776.3899	60.2994
2776.5103	61.2443
2776.6309	61.8117
2776.7515	62.1618
2776.8718	62.3131
2776.9924	62.3511
2777.1130	62.4429
2777.2334	62.6894
2777.3540	63.0244
2777.4746	63.2904
2777.5950	63.4034
2777.7156	63.4289
2777.8362	63.5034
2777.9565	63.699
2778.0771	63.9719
2778.1978	64.2256
2778.3184	64.4006
2778.4387	64.5003
2778.5593	64.5568
2778.6799	64.5977
2778.8003	64.6504
2778.9209	64.7534
2779.0415	64.9384
2779.1619	65.1911
2779.2825	65.4392
2779.4031	65.5959
2779.5234	65.6231
2779.6440	65.56
2779.7646	65.4905
2779.8850	65.4861
2780.0056	65.5719
2780.1262	65.7308
2780.2468	65.9233
2780.3672	66.1022
2780.4878	66.2265
2780.6084	66.2818
2780.7288	66.2959
2780.8494	66.3275
2780.9700	66.4271
2781.0903	66.6025
2781.2109	66.8223
2781.3315	67.0509
2781.4519	67.2793
2781.5725	67.5169
2781.6931	67.7592
2781.8135	67.9713
2781.9341	68.1117
2782.0547	68.1724
2782.1753	68.1922
2782.2957	68.2292
2782.4163	68.3185
2782.5369	68.4564
2782.6572	68.6186
2782.7778	68.7871
2782.8984	68.9592
2783.0188	69.1352
2783.1394	69.307
2783.2600	69.4618
2783.3804	69.5934
2783.5010	69.7053
2783.6216	69.8029
2783.7419	69.8865
2783.8625	69.9553
2783.9832	70.0178
2784.1038	70.092
2784.2241	70.1905
2784.3447	70.304
2784.4653	70.401
2784.5857	70.4491
2784.7063	70.4397
2784.8269	70.3972
2784.9473	70.3632
2785.0679	70.3688
2785.1885	70.4141
2785.3088	70.4712
2785.4294	70.5059
2785.5500	70.5022
2785.6704	70.4734
2785.7910	70.4507
2785.9116	70.4614
2786.0322	70.5115
2786.1526	70.5875
2786.2732	70.6693
2786.3938	70.7424
2786.5142	70.7987
2786.6348	70.8304
2786.7554	70.83
2786.8757	70.7989
2786.9963	70.7534
2787.1169	70.717
2787.2373	70.7007
2787.3579	70.6916
2787.4785	70.6627
2787.5989	70.597
2787.7195	70.5021
2787.8401	70.4031
2787.9607	70.3214
2788.0811	70.2609
2788.2017	70.2128
2788.3223	70.1679
2788.4426	70.121
2788.5632	70.0666
2788.6838	69.9969
2788.8042	69.9103
2788.9248	69.8221
2789.0454	69.7607
2789.1658	69.7449
2789.2864	69.759
2789.4070	69.7516
2789.5273	69.6616
2789.6479	69.46
2789.7686	69.1777
2789.8892	68.8973
2790.0095	68.7084
2790.1301	68.6523
2790.2507	68.691
2790.3711	68.7245
2790.4917	68.654
2790.6123	68.4491
2790.7327	68.1673
2790.8533	67.9055
2790.9739	67.7252
2791.0942	67.6156
2791.2148	67.5225
2791.3354	67.4081
2791.4558	67.2782
2791.5764	67.154
2791.6970	67.0303
2791.8176	66.8779
2791.9380	66.6891
2792.0586	66.5072
2792.1792	66.3887
2792.2996	66.3296
2792.4202	66.2433
2792.5408	66.0326
2792.6611	65.6947
2792.7817	65.3464
2792.9023	65.1294
2793.0227	65.0817
2793.1433	65.1042
2793.2639	65.0547
2793.3843	64.8719
2793.5049	64.6107
2793.6255	64.3683
2793.7461	64.1917
2793.8665	64.0602
2793.9871	63.938
2794.1077	63.813
2794.2280	63.6807
2794.3486	63.5152
2794.4692	63.2907
2794.5896	63.0353
2794.7102	62.8338
2794.8308	62.7419
2794.9512	62.6979
2795.0718	62.5516
2795.1924	62.2113
2795.3127	61.7578
2795.4333	61.3838
2795.5540	61.2014
2795.6746	61.1314
2795.7949	61.0102
2795.9155	60.7818
2796.0361	60.5048
2796.1565	60.0917
2796.2771	59.0559
2796.3977	56.6329
2796.5181	52.2954
2796.6387	46.3772
2796.7593	40.5548
2796.8796	37.6558
2797.0002	39.4932
2797.1208	44.5753
2797.2412	50.0048
2797.3618	53.9668
2797.4824	56.0689
2797.6030	56.8017
2797.7234	56.8662
2797.8440	56.6555
2797.9646	56.1083
2798.0850	54.9011
2798.2056	52.6953
2798.3262	49.2554
2798.4465	44.5251
2798.5671	38.8391
2798.6877	33.3318
2798.8081	30.2199
2798.9287	31.574
2799.0493	36.7615
2799.1697	43.2557
2799.2903	49.0818
2799.4109	53.3908
2799.5315	56.1656
2799.6519	57.8119
2799.7725	58.7891
2799.8931	59.4008
2800.0134	59.7968
2800.1340	60.0757
2800.2546	60.3322
2800.3750	60.6157
2800.4956	60.8981
2800.6162	61.123
2800.7366	61.291
2800.8572	61.4755
2800.9778	61.7445
2801.0981	62.0793
2801.2188	62.3837
2801.3394	62.5773
2801.4600	62.6699
2801.5803	62.7415
2801.7009	62.8601
2801.8215	63.0306
2801.9419	63.2195
2802.0625	63.409
2802.1831	63.6123
2802.3035	63.8393
2802.4241	64.0659
2802.5447	64.2497
2802.6650	64.3718
2802.7856	64.4528
2802.9063	64.529
2803.0266	64.6234
2803.1472	64.746
2803.2678	64.9112
2803.3884	65.1319
2803.5088	65.3866
2803.6294	65.6048
2803.7500	65.7133
2803.8704	65.7148
2803.9910	65.7144
2804.1116	65.8489
2804.2319	66.1688
2804.3525	66.5869
2804.4731	66.9454
2804.5935	67.1428
2804.7141	67.204
2804.8347	67.2346
2804.9551	67.3165
2805.0757	67.4493
2805.1963	67.5822
2805.3169	67.6869
2805.4373	67.7887
2805.5579	67.9287
2805.6785	68.1094
2805.7988	68.2843
2805.9194	68.4017
2806.0400	68.4554
2806.1604	68.4902
2806.2810	68.5617
2806.4016	68.6924
2806.5220	68.8623
2806.6426	69.0357
2806.7632	69.1932
2806.8835	69.3384
2807.0042	69.48
2807.1248	69.6116
2807.2454	69.7125
2807.3657	69.7676
2807.4863	69.7873
2807.6069	69.8035
2807.7273	69.8446
2807.8479	69.9101
2807.9685	69.9713
2808.0889	69.9992
2808.2095	69.995
2808.3301	69.99
2808.4504	70.015
2808.5710	70.0696
2808.6917	70.1258
2808.8120	70.1608
2808.9326	70.1821
2809.0532	70.2145
2809.1738	70.264
2809.2942	70.3024
2809.4148	70.2979
2809.5354	70.2604
2809.6558	70.2455
2809.7764	70.304
2809.8970	70.4244
2810.0173	70.5307
2810.1379	70.5433
2810.2585	70.4459
2810.3789	70.2898
2810.4995	70.1369
2810.6201	70.0066
2810.7405	69.8805
2810.8611	69.7513
2810.9817	69.6525
2811.1023	69.6311
2811.2227	69.6955
2811.3433	69.7989
2811.4639	69.8743
2811.5842	69.8805
2811.7048	69.8097
2811.8254	69.6593
2811.9458	69.416
2812.0664	69.0838
2812.1870	68.7237
2812.3074	68.4426
2812.4280	68.3202
2812.5486	68.3363
2812.6689	68.3771
2812.7896	68.3214
2812.9102	68.1326
2813.0308	67.8759
2813.1511	67.6505
2813.2717	67.5045
2813.3923	67.4093
2813.5127	67.3043
2813.6333	67.159
2813.7539	66.999
2813.8743	66.8793
2813.9949	66.8338
2814.1155	66.8421
2814.2358	66.8354
2814.3564	66.7357
2814.4771	66.5059
2814.5974	66.1756
2814.7180	65.824
2814.8386	65.5265
2814.9592	65.3066
2815.0796	65.134
2815.2002	64.9696
2815.3208	64.8102
2815.4412	64.6845
2815.5618	64.6051
2815.6824	64.5302
2815.8027	64.3848
2815.9233	64.123
2816.0439	63.7695
2816.1643	63.396
2816.2849	63.0604
2816.4055	62.7738
2816.5259	62.5233
2816.6465	62.3072
2816.7671	62.1338
2816.8877	61.9911
2817.0081	61.8409
2817.1287	61.6594
2817.2493	61.4761
2817.3696	61.351
2817.4902	61.301
2817.6108	61.263
2817.7312	61.1552
2817.8518	60.9755
2817.9724	60.812
2818.0928	60.7345
2818.2134	60.6853
2818.3340	60.515
2818.4543	60.1454
2818.5750	59.652
2818.6956	59.099
2818.8162	58.2399
2818.9365	56.4302
2819.0571	52.953
2819.1777	47.6162
2819.2981	41.357
2819.4187	36.5434
2819.5393	35.9391
2819.6597	39.7536
2819.7803	45.3391
2819.9009	50.182
2820.0212	53.2063
2820.1418	54.51
2820.2625	54.7553
2820.3828	54.5666
2820.5034	54.1628
2820.6240	53.3626
2820.7446	51.8233
2820.8650	49.2455
2820.9856	45.4618
2821.1062	40.5383
2821.2266	35.0258
2821.3472	30.335
2821.4678	28.6742
2821.5881	31.2672
2821.7087	36.7176
2821.8293	42.7533
2821.9497	47.9217
2822.0703	51.7215
2822.1909	54.2764
2822.3113	55.9671
2822.4319	57.1434
2822.5525	58.0061
2822.6731	58.6427
2822.7935	59.1044
2822.9141	59.4343
2823.0347	59.6603
2823.1550	59.8041
2823.2756	59.9118
2823.3962	60.0531
2823.5166	60.2706
2823.6372	60.5321
2823.7578	60.7545
2823.8782	60.8877
2823.9988	60.9736
2824.1194	61.1073
2824.2397	61.3385
2824.3604	61.6167
2824.4810	61.8423
2824.6016	61.9672
2824.7219	62.0375
2824.8425	62.1381
2824.9631	62.3055
2825.0835	62.5066
2825.2041	62.6972
2825.3247	62.8822
2825.4451	63.1082
2825.5657	63.3982
2825.6863	63.7072
2825.8066	63.9536
2825.9272	64.0921
2826.0479	64.1549
2826.1682	64.2221
2826.2888	64.3591
2826.4094	64.5788
2826.5300	64.854
2826.6504	65.1486
2826.7710	65.435
2826.8916	65.6931
2827.0120	65.9091
2827.1326	66.0811
2827.2532	66.2196
2827.3735	66.3357
2827.4941	66.4328
2827.6147	66.5145
2827.7351	66.6036
2827.8557	66.7396
2827.9763	66.9471
2828.0967	67.2013
2828.2173	67.4349
2828.3379	67.5894
2828.4585	67.6675
2828.5789	67.7344
2828.6995	67.8632
2828.8201	68.0744
2828.9404	68.3225
2829.0610	68.5357
2829.1816	68.668
2829.3020	68.7234
2829.4226	68.7399
2829.5432	68.7582
2829.6636	68.8012
2829.7842	68.8689
2829.9048	68.9472
2830.0251	69.0211
2830.1458	69.0912
2830.2664	69.1773
2830.3870	69.3041
2830.5073	69.4754
2830.6279	69.663
2830.7485	69.8257
2830.8689	69.9399
2830.9895	70.0066
2831.1101	70.0287
2831.2305	69.9902
2831.3511	69.8707
2831.4717	69.6875
2831.5920	69.5132
2831.7126	69.4356
2831.8333	69.4889
2831.9536	69.6231
2832.0742	69.7539
2832.1948	69.8422
2832.3154	69.9173
2832.4358	70.0184
2832.5564	70.1218
2832.6770	70.1401
2832.7974	70.0049
2832.9180	69.7454
2833.0386	69.477
2833.1589	69.3072
2833.2795	69.2561
2833.4001	69.2634
2833.5205	69.2616
2833.6411	69.2316
2833.7617	69.1911
2833.8821	69.148
2834.0027	69.0831
2834.1233	68.9784
2834.2439	68.8439
2834.3643	68.7013
2834.4849	68.549
2834.6055	68.3631
2834.7258	68.1446
2834.8464	67.9531
2834.9670	67.8672
2835.0874	67.8965
2835.2080	67.9415
2835.3286	67.8611
2835.4490	67.5958
2835.5696	67.2234
2835.6902	66.8898
2835.8105	66.6791
2835.9312	66.5539
2836.0518	66.4158
2836.1724	66.213
2836.2927	65.9821
2836.4133	65.7935
2836.5339	65.6712
2836.6543	65.5768
2836.7749	65.4622
2836.8955	65.3179
2837.0159	65.1659
2837.1365	65.0151
2837.2571	64.8437
2837.3774	64.6281
2837.4980	64.3803
2837.6187	64.1411
2837.7390	63.9359
2837.8596	63.7433
2837.9802	63.5169
2838.1008	63.2344
2838.2212	62.9241
2838.3418	62.6434
2838.4624	62.4343
2838.5828	62.2969
2838.7034	62.1943
2838.8240	62.0754
2838.9443	61.9017
2839.0649	61.6684
2839.1855	61.41
2839.3059	61.1762
2839.4265	60.9843
2839.5471	60.7916
2839.6675	60.5317
2839.7881	60.1935
2839.9087	59.8562
2840.0293	59.6214
2840.1497	59.4958
2840.2703	59.3577
2840.3909	59.0757
2840.5112	58.6576
2840.6318	58.2218
2840.7524	57.7404
2840.8728	56.7864
2840.9934	54.6154
2841.1140	50.6292
2841.2344	44.9663
2841.3550	39.0024
2841.4756	35.4111
2841.5959	36.4505
2841.7166	41.1937
2841.8372	46.7417
2841.9578	51.0286
2842.0781	53.426
2842.1987	54.2984
2842.3193	54.3873
2842.4397	54.2533
2842.5603	54.001
2842.6809	53.3727
2842.8013	51.9986
2842.9219	49.5623
2843.0425	45.8648
2843.1628	40.9258
2843.2834	35.2471
2843.4041	30.2328
2843.5244	28.2328
2843.6450	30.6928
2843.7656	36.1904
2843.8862	42.3254
2844.0066	47.605
2844.1272	51.5077
2844.2478	54.1141
2844.3682	55.772
2844.4888	56.8467
2844.6094	57.5937
2844.7297	58.1536
2844.8503	58.5966
2844.9709	58.956
2845.0913	59.2426
2845.2119	59.463
2845.3325	59.6391
2845.4529	59.808
2845.5735	60.0019
2845.6941	60.2307
2845.8147	60.4878
2845.9351	60.7634
2846.0557	61.0382
2846.1763	61.2658
2846.2966	61.3847
2846.4172	61.3755
2846.5378	61.313
2846.6582	61.3425
2846.7788	61.5743
2846.8994	61.9859
2847.0198	62.4294
2847.1404	62.7507
2847.2610	62.9131
2847.3816	63.0082
2847.5020	63.1503
2847.6226	63.3655
2847.7432	63.5843
2847.8635	63.7358
2847.9841	63.8349
2848.1047	63.9702
2848.2251	64.2128
2848.3457	64.5465
2848.4663	64.8835
2848.5867	65.1401
2848.7073	65.296
2848.8279	65.3892
2848.9482	65.4685
2849.0688	65.5606
2849.1895	65.676
2849.3101	65.8268
2849.4304	66.0251
2849.5510	66.2652
2849.6716	66.5166
2849.7920	66.7402
2849.9126	66.9135
2850.0332	67.0422
2850.1536	67.1503
2850.2742	67.2638
2850.3948	67.4002
2850.5151	67.5647
2850.6357	67.7476
2850.7563	67.9276
2850.8767	68.0844
2850.9973	68.2132
2851.1179	68.3271
2851.2385	68.4421
2851.3589	68.5612
2851.4795	68.6769
2851.6001	68.7862
2851.7205	68.8962
2851.8411	69.0092
2851.9617	69.1056
2852.0820	69.1549
2852.2026	69.1499
2852.3232	69.1279
2852.4436	69.1448
2852.5642	69.2207
2852.6848	69.3138
2852.8052	69.3561
2852.9258	69.3194
2853.0464	69.2433
2853.1670	69.1975
2853.2874	69.2182
2853.4080	69.2845
2853.5286	69.3536
2853.6489	69.4031
2853.7695	69.4342
2853.8901	69.4416
2854.0105	69.4018
2854.1311	69.3041
2854.2517	69.1861
2854.3721	69.1183
2854.4927	69.1371
2854.6133	69.1945
2854.7336	69.1893
2854.8542	69.0593
2854.9749	68.8438
2855.0955	68.6505
2855.2158	68.5581
2855.3364	68.5497
2855.4570	68.5371
2855.5774	68.4426
2855.6980	68.258
2855.8186	68.037
2855.9390	67.8441
2856.0596	67.7155
2856.1802	67.6524
2856.3005	67.631
2856.4211	67.6101
2856.5417	67.544
2856.6621	67.4082
2856.7827	67.2166
2856.9033	67.0049
2857.0239	66.7888
2857.1443	66.5438
2857.2649	66.2389
2857.3855	65.8942
2857.5059	65.5935
2857.6265	65.4248
2857.7471	65.3983
2857.8674	65.431
2857.9880	65.4219
2858.1086	65.3399
2858.2290	65.2278
2858.3496	65.1271
2858.4702	65.0186
2858.5906	64.8509
2858.7112	64.6177
2858.8318	64.3844
2858.9524	64.223
2859.0728	64.1322
2859.1934	64.042
2859.3140	63.9044
2859.4343	63.7557
2859.5549	63.6638
2859.6755	63.6154
2859.7959	63.4884
2859.9165	63.1671
2860.0371	62.6864
2860.1575	62.2375
2860.2781	62.0085
2860.3987	62.0131
2860.5190	62.0943
2860.6396	62.0946
2860.7603	61.9959
2860.8809	61.8805
2861.0012	61.7833
2861.1218	61.6295
2861.2424	61.3442
2861.3628	60.9957
2861.4834	60.7663
2861.6040	60.7514
2861.7244	60.8226
2861.8450	60.7468
2861.9656	60.443
2862.0859	60.0499
2862.2065	59.6498
2862.3271	58.9099
2862.4475	57.0952
2862.5681	53.5747
2862.6887	48.5344
2862.8093	43.4975
2862.9297	40.9913
2863.0503	42.5403
2863.1709	46.918
2863.2913	51.6755
2863.4119	55.1894
2863.5325	57.0751
2863.6528	57.7752
2863.7734	57.9412
2863.8940	57.9485
2864.0144	57.8052
2864.1350	57.3433
2864.2556	56.3555
2864.3760	54.5482
2864.4966	51.5064
2864.6172	46.9064
2864.7378	40.9929
2864.8582	35.1659
2864.9788	32.1513
2865.0994	34.0916
2865.2197	39.7544
2865.3403	46.2601
2865.4609	51.6899
2865.5813	55.3869
2865.7019	57.5308
2865.8225	58.674
2865.9429	59.3437
2866.0635	59.8356
2866.1841	60.2366
2866.3044	60.5528
2866.4250	60.7935
2866.5457	60.9805
2866.6663	61.1371
2866.7866	61.2906
2866.9072	61.4703
2867.0278	61.6848
2867.1482	61.9019
2867.2688	62.0697
2867.3894	62.1687
2867.5098	62.2383
2867.6304	62.3393
2867.7510	62.4918
2867.8713	62.6585
2867.9919	62.7944
2868.1125	62.9075
2868.2329	63.0563
2868.3535	63.2815
2868.4741	63.5481
2868.5947	63.7641
2868.7151	63.8623
2868.8357	63.861
2868.9563	63.8452
2869.0767	63.8876
2869.1973	63.9915
2869.3179	64.1095
2869.4382	64.2097
2869.5588	64.3137
2869.6794	64.47
2869.7998	64.6947
2869.9204	64.9438
2870.0410	65.1449
2870.1614	65.2564
2870.2820	65.2974
2870.4026	65.3254
2870.5232	65.3842
2870.6436	65.472
2870.7642	65.5552
2870.8848	65.6115
2871.0051	65.6611
2871.1257	65.7596
2871.2463	65.9555
2871.3667	66.2462
2871.4873	66.5671
2871.6079	66.8252
2871.7283	66.9522
2871.8489	66.94
2871.9695	66.8358
2872.0898	66.7061
2872.2104	66.6015
2872.3311	66.5485
2872.4517	66.5628
2872.5720	66.6588
2872.6926	66.8385
2872.8132	67.0725
2872.9336	67.2993
2873.0542	67.4521
2873.1748	67.4971
2873.2952	67.4546
2873.4158	67.3872
2873.5364	67.3606
2873.6567	67.4039
2873.7773	67.4921
2873.8979	67.563
2874.0183	67.5602
2874.1389	67.4754
2874.2595	67.3616
2874.3801	67.3044
2874.5005	67.3665
2874.6211	67.5425
2874.7417	67.7604
2874.8621	67.9287
2874.9827	67.9949
2875.1033	67.9687
2875.2236	67.8964
2875.3442	67.818
2875.4648	67.7461
2875.5852	67.6814
2875.7058	67.6373
2875.8264	67.641
2875.9468	67.7082
2876.0674	67.8203
2876.1880	67.9324
2876.3086	68.0057
2876.4290	68.0341
2876.5496	68.04
2876.6702	68.0468
2876.7905	68.0559
2876.9111	68.0485
2877.0317	68.0047
2877.1521	67.9187
2877.2727	67.7978
2877.3933	67.6536
2877.5137	67.4994
2877.6343	67.3569
2877.7549	67.2597
2877.8752	67.2433
2877.9958	67.3242
2878.1165	67.4814
2878.2371	67.6548
2878.3574	67.7669
2878.4780	67.7619
2878.5986	67.6433
2878.7190	67.4781
2878.8396	67.3575
2878.9602	67.3342
2879.0806	67.3813
2879.2012	67.4135
2879.3218	67.3605
2879.4421	67.2338
2879.5627	67.123
2879.6833	67.1185
2879.8037	67.2283
2879.9243	67.3629
2880.0449	67.4061
2880.1655	67.307
2880.2859	67.1099
2880.4065	66.9011
2880.5271	66.7319
2880.6475	66.5941
2880.7681	66.4639
2880.8887	66.3551
2881.0090	66.3158
2881.1296	66.3706
2881.2502	66.4732
2881.3706	66.5317
2881.4912	66.4876
2881.6118	66.371
2881.7322	66.2737
2881.8528	66.267
2881.9734	66.3412
2882.0940	66.4265
2882.2144	66.4697
2882.3350	66.486
2882.4556	66.5331
2882.5759	66.6386
2882.6965	66.7555
2882.8171	66.7954
2882.9375	66.7091
2883.0581	66.5341
2883.1787	66.3655
2883.2991	66.2819
2883.4197	66.2933
2883.5403	66.3509
2883.6606	66.4022
2883.7813	66.4316
2883.9019	66.4504
2884.0225	66.4569
2884.1428	66.4185
2884.2634	66.3004
2884.3840	66.1138
2884.5044	65.9292
2884.6250	65.8373
2884.7456	65.8859
2884.8660	66.0437
2884.9866	66.2231
2885.1072	66.3387
2885.2275	66.3512
2885.3481	66.2699
2885.4688	66.1288
2885.5891	65.9671
2885.7097	65.8246
2885.8303	65.7403
2885.9509	65.7393
2886.0713	65.8161
2886.1919	65.9322
2886.3125	66.0425
2886.4329	66.1297
2886.5535	66.2113
2886.6741	66.3101
2886.7944	66.417
2886.9150	66.4898
2887.0356	66.493
2887.1560	66.4425
2887.2766	66.4056
2887.3972	66.4507
2887.5176	66.5904
2887.6382	66.7688
2887.7588	66.9039
2887.8794	66.9462
2887.9998	66.905
2888.1204	66.8279
2888.2410	66.7593
2888.3613	66.7151
2888.4819	66.6872
2888.6025	66.6635
2888.7229	66.6428
2888.8435	66.6379
2888.9641	66.6682
2889.0845	66.7482
2889.2051	66.8757
2889.3257	67.0236
2889.4460	67.1486
2889.5667	67.2172
2889.6873	67.232
2889.8079	67.2344
2889.9282	67.2738
2890.0488	67.3654
2890.1694	67.4734
2890.2898	67.5404
2890.4104	67.5393
2890.5310	67.5012
2890.6514	67.4903
2890.7720	67.549
2890.8926	67.6599
2891.0129	67.758
2891.1335	67.7838
2891.2542	67.7333
2891.3745	67.6626
2891.4951	67.6436
2891.6157	67.7068
2891.7363	67.8159
2891.8567	67.8922
2891.9773	67.8719
2892.0979	67.7544
2892.2183	67.6036
2892.3389	67.5017
2892.4595	67.4903
2892.5798	67.5486
2892.7004	67.6221
2892.8210	67.674
2892.9414	67.7148
2893.0620	67.7848
2893.1826	67.9073
2893.3030	68.0585
2893.4236	68.1808
2893.5442	68.2281
2893.6648	68.1998
2893.7852	68.1382
2893.9058	68.0896
2894.0264	68.0671
2894.1467	68.0483
2894.2673	68.0052
2894.3879	67.9352
2894.5083	67.8644
2894.6289	67.8218
2894.7495	67.8121
2894.8699	67.813
2894.9905	67.8026
2895.1111	67.7888
2895.2314	67.8093
2895.3521	67.8952
2895.4727	68.0295
2895.5933	68.1405
2895.7136	68.1474
2895.8342	68.0243
2895.9548	67.8264
2896.0752	67.6479
2896.1958	67.5462
2896.3164	67.5026
2896.4368	67.4534
2896.5574	67.3622
2896.6780	67.2587
2896.7983	67.2037
2896.9189	67.2162
2897.0396	67.2393
2897.1599	67.183
2897.2805	67.0054
2897.4011	66.7525
2897.5217	66.5196
2897.6421	66.3767
2897.7627	66.3257
2897.8833	66.3186
2898.0037	66.3035
2898.1243	66.2515
2898.2449	66.153
2898.3652	66.011
2898.4858	65.8482
2898.6064	65.7108
2898.7268	65.643
2898.8474	65.645
2898.9680	65.659
2899.0884	65.6114
2899.2090	65.4766
2899.3296	65.2951
2899.4502	65.1254
2899.5706	64.9836
2899.6912	64.8409
2899.8118	64.6807
2899.9321	64.5429
2900.0527	64.4922
2900.1733	64.5352
2900.2937	64.5827
2900.4143	64.5126
2900.5349	64.2808
2900.6553	63.9659
2900.7759	63.7023
2900.8965	63.5713
2901.0168	63.552
2901.1375	63.562
2901.2581	63.5277
2901.3787	63.4119
2901.4990	63.2004
2901.6196	62.9017
2901.7402	62.5761
2901.8606	62.3374
2901.9812	62.2771
2902.1018	62.3644
2902.2222	62.4372
2902.3428	62.326
2902.4634	62.0012
2902.5837	61.5943
2902.7043	61.2617
2902.8250	61.0418
2902.9453	60.8678
2903.0659	60.6922
2903.1865	60.5124
2903.3071	60.1912
2903.4275	59.2647
2903.5481	57.0462
2903.6687	53.0744
2903.7891	47.698
2903.9097	42.5466
2904.0303	40.2348
2904.1506	42.2291
2904.2712	47.0257
2904.3918	51.9827
2904.5122	55.4799
2904.6328	57.231
2904.7534	57.7766
2904.8738	57.8142
2904.9944	57.7079
2905.1150	57.4422
2905.2356	56.8876
2905.3560	55.9637
2905.4766	54.5152
2905.5972	52.1451
2905.7175	48.3474
2905.8381	42.9862
2905.9587	36.908
2906.0791	32.3671
2906.1997	32.1334
2906.3203	36.4351
2906.4407	42.6917
2906.5613	48.5548
2906.6819	52.9783
2906.8022	55.8639
2906.9229	57.5657
2907.0435	58.5115
2907.1641	59.0177
2907.2844	59.2834
2907.4050	59.4417
2907.5256	59.5732
2907.6460	59.6975
2907.7666	59.8025
2907.8872	59.9021
2908.0076	60.0483
2908.1282	60.2713
2908.2488	60.5219
2908.3691	60.705
2908.4897	60.7844
2908.6104	60.843
2908.7307	61.0154
2908.8513	61.3472
2908.9719	61.7295
2909.0925	61.9909
2909.2129	62.0595
2909.3335	62.028
2909.4541	62.0627
2909.5745	62.251
2909.6951	62.5369
2909.8157	62.7907
2909.9360	62.9317
2910.0566	62.9834
2910.1772	63.0274
2910.2976	63.1244
2910.4182	63.2804
2910.5388	63.4692
2910.6592	63.6699
2910.7798	63.8825
2910.9004	64.1207
2911.0210	64.3976
2911.1414	64.7102
2911.2620	65.0255
2911.3826	65.2825
2911.5029	65.4255
2911.6235	65.4535
2911.7441	65.4364
2911.8645	65.4696
2911.9851	65.5955
2912.1057	65.7738
2912.2261	65.9363
2912.3467	66.07
2912.4673	66.2356
2912.5876	66.4956
2912.7083	66.8273
2912.8289	67.123
2912.9495	67.2873
2913.0698	67.3354
2913.1904	67.3876
2913.3110	67.5596
2913.4314	67.8628
2913.5520	68.2087
2913.6726	68.4949
2913.7930	68.6756
2913.9136	68.7581
2914.0342	68.7552
2914.1545	68.6662
2914.2751	68.5123
2914.3958	68.3671
2914.5161	68.3249
2914.6367	68.4234
2914.7573	68.6039
2914.8779	68.7565
2914.9983	68.8096
2915.1189	68.7758
2915.2395	68.717
2915.3599	68.6778
2915.4805	68.6596
2915.6011	68.6484
2915.7214	68.6492
2915.8420	68.6794
2915.9626	68.736
2916.0830	68.7843
2916.2036	68.7849
2916.3242	68.7282
2916.4446	68.6383
2916.5652	68.5487
2916.6858	68.4799
2916.8064	68.4419
2916.9268	68.4383
2917.0474	68.4537
2917.1680	68.4358
2917.2883	68.3135
2917.4089	68.056
2917.5295	67.7197
2917.6499	67.4234
2917.7705	67.2558
2917.8911	67.2068
2918.0115	67.1885
2918.1321	67.1233
2918.2527	67.0042
2918.3730	66.8738
2918.4937	66.7551
2918.6143	66.6203
2918.7349	66.4314
2918.8552	66.1974
2918.9758	65.9716
2919.0964	65.7888
2919.2168	65.6206
2919.3374	65.4062
2919.4580	65.1282
2919.5784	64.8445
2919.6990	64.6347
2919.8196	64.5174
2919.9399	64.4314
2920.0605	64.2965
2920.1812	64.0848
2920.3015	63.8321
2920.4221	63.5887
2920.5427	63.3735
2920.6633	63.1721
2920.7837	62.9596
2920.9043	62.7055
2921.0249	62.3663
2921.1453	61.9058
2921.2659	61.3515
2921.3865	60.825
2921.5068	60.4811
2921.6274	60.3804
2921.7480	60.4212
2921.8684	60.423
2921.9890	60.2822
2922.1096	60.0371
2922.2300	59.7742
2922.3506	59.4897
2922.4712	59.0795
2922.5918	58.4822
2922.7122	57.7868
2922.8328	57.1077
2922.9534	56.2829
2923.0737	54.7232
2923.1943	51.6687
2923.3149	46.7564
2923.4353	40.6303
2923.5559	35.3364
2923.6765	33.7305
2923.7969	36.7662
2923.9175	42.2172
2924.0381	47.4199
2924.1584	51.0133
2924.2791	52.8563
2924.3997	53.4968
2924.5203	53.5931
2924.6406	53.4957
2924.7612	53.1708
2924.8818	52.3947
2925.0022	50.9481
2925.1228	48.6561
2925.2434	45.3596
2925.3638	40.9758
2925.4844	35.717
2925.6050	30.4197
2925.7253	26.8096
2925.8459	26.859
2925.9666	30.6771
2926.0869	36.359
2926.2075	42.0749
2926.3281	46.8521
2926.4487	50.392
2926.5691	52.7908
2926.6897	54.32
2926.8103	55.2757
2926.9307	55.8963
2927.0513	56.3361
2927.1719	56.6754
2927.2922	56.9489
2927.4128	57.1784
2927.5334	57.3967
2927.6538	57.6514
2927.7744	57.9892
2927.8950	58.4278
2928.0154	58.9335
2928.1360	59.425
2928.2566	59.8058
2928.3772	60.0159
2928.4976	60.0732
2928.6182	60.0758
2928.7388	60.1509
2928.8591	60.3771
2928.9797	60.7366
2929.1003	61.1363
2929.2207	61.4824
2929.3413	61.7478
2929.4619	61.98
2929.5823	62.2466
2929.7029	62.5722
2929.8235	62.9219
2929.9438	63.2416
2930.0645	63.5095
2930.1851	63.7496
2930.3057	63.9988
2930.4260	64.2661
2930.5466	64.5242
2930.6672	64.7399
2930.7876	64.9104
2930.9082	65.0713
2931.0288	65.2691
2931.1492	65.5239
2931.2698	65.8135
2931.3904	66.0922
2931.5107	66.3269
2931.6313	66.5237
2931.7520	66.7236
2931.8723	66.9716
2931.9929	67.2795
2932.1135	67.6126
2932.2341	67.9109
2932.3545	68.1306
2932.4751	68.2722
2932.5957	68.3704
2932.7161	68.457
2932.8367	68.5362
2932.9573	68.5979
2933.0776	68.6532
2933.1982	68.7493
2933.3188	68.9377
2933.4392	69.2169
2933.5598	69.5082
2933.6804	69.6976
2933.8008	69.7227
2933.9214	69.6292
2934.0420	69.543
2934.1626	69.5805
2934.2830	69.7695
2934.4036	70.0373
2934.5242	70.2708
2934.6445	70.3967
2934.7651	70.4213
2934.8857	70.4072
2935.0061	70.4149
2935.1267	70.4553
2935.2473	70.4809
2935.3677	70.4204
2935.4883	70.2327
2935.6089	69.944
2935.7292	69.6412
2935.8499	69.4196
2935.9705	69.3185
2936.0911	69.2947
2936.2114	69.262
2936.3320	69.1664
2936.4526	69.0304
2936.5730	68.9232
2936.6936	68.8844
2936.8142	68.8746
2936.9346	68.8041
2937.0552	68.6111
2937.1758	68.3162
2937.2961	67.9984
2937.4167	67.7187
2937.5374	67.4723
2937.6577	67.2135
2937.7783	66.9212
2937.8989	66.6266
2938.0195	66.3797
2938.1399	66.1935
2938.2605	66.0301
2938.3811	65.8394
2938.5015	65.6035
2938.6221	65.3389
2938.7427	65.0624
2938.8630	64.7718
2938.9836	64.4642
2939.1042	64.1643
2939.2246	63.9127
2939.3452	63.7155
2939.4658	63.5156
2939.5862	63.231
2939.7068	62.8339
2939.8274	62.3899
2939.9480	62.0122
2940.0684	61.7659
2940.1890	61.6142
2940.3096	61.4544
2940.4299	61.2012
2940.5505	60.8341
2940.6711	60.3848
2940.7915	59.9025
2940.9121	59.4411
2941.0327	59.0559
2941.1531	58.773
2941.2737	58.5423
2941.3943	58.2449
2941.5146	57.7871
2941.6353	57.1937
2941.7559	56.5615
2941.8765	55.8431
2941.9968	54.6424
2942.1174	52.2837
2942.2380	48.1929
2942.3584	42.4235
2942.4790	36.1918
2942.5996	32.1216
2942.7200	32.7375
2942.8406	37.3427
2942.9612	43.0194
2943.0815	47.649
2943.2021	50.4894
2943.3228	51.7396
2943.4431	52.0323
2943.5637	51.9546
2943.6843	51.756
2943.8049	51.3609
2943.9253	50.5473
2944.0459	49.0727
2944.1665	46.6982
2944.2869	43.2161
2944.4075	38.5839
2944.5281	33.1813
2944.6484	28.1326
2944.7690	25.3832
2944.8896	26.4999
2945.0100	30.8243
2945.1306	36.4462
2945.2512	41.9285
2945.3716	46.5179
2945.4922	49.9243
2945.6128	52.1895
2945.7334	53.5894
2945.8538	54.4947
2945.9744	55.2037
2946.0950	55.8314
2946.2153	56.3371
2946.3359	56.6747
2946.4565	56.9195
2946.5769	57.2427
2946.6975	57.76
2946.8181	58.4091
2946.9385	58.9867
2947.0591	59.3219
2947.1797	59.4222
2947.3000	59.4557
2947.4207	59.6004
2947.5413	59.9145
2947.6619	60.3371
2947.7822	60.7855
2947.9028	61.2307
2948.0234	61.6844
2948.1438	62.1397
2948.2644	62.5519
2948.3850	62.8823
2948.5054	63.1454
2948.6260	63.3978
2948.7466	63.6843
2948.8669	64.0051
2948.9875	64.3375
2949.1082	64.6737
2949.2285	65.0227
2949.3491	65.3748
2949.4697	65.6841
2949.5903	65.9041
2949.7107	66.0406
2949.8313	66.1603
2949.9519	66.3344
2950.0723	66.5747
2950.1929	66.8336
2950.3135	67.0651
2950.4338	67.2705
2950.5544	67.4819
2950.6750	67.7057
2950.7954	67.905
2950.9160	68.0456
2951.0366	68.1554
2951.1570	68.3179
2951.2776	68.598
2951.3982	68.9734
2951.5188	69.3467
2951.6392	69.6256
2951.7598	69.7912
2951.8804	69.8929
2952.0007	69.9883
2952.1213	70.0946
2952.2419	70.1946
2952.3623	70.2742
2952.4829	70.3416
2952.6035	70.412
2952.7239	70.4868
2952.8445	70.5529
2952.9651	70.5982
2953.0854	70.6202
2953.2061	70.6202
2953.3267	70.6002
2953.4473	70.57
2953.5676	70.5508
2953.6882	70.5582
2953.8088	70.5766
2953.9292	70.5578
2954.0498	70.4583
2954.1704	70.2801
2954.2908	70.0685
2954.4114	69.8659
2954.5320	69.6738
2954.6523	69.4691
2954.7729	69.2538
2954.8936	69.0714
2955.0139	68.9602
2955.1345	68.894
2955.2551	68.7869
2955.3757	68.5734
2955.4961	68.2827
2955.6167	68.0223
2955.7373	67.8795
2955.8577	67.841
2955.9783	67.8148
2956.0989	67.7215
2956.2192	67.5523
2956.3398	67.3399
2956.4604	67.0931
2956.5808	66.7873
2956.7014	66.4196
2956.8220	66.0513
2956.9424	65.7641
2957.0630	65.5654
2957.1836	65.3571
2957.3042	65.0247
2957.4246	64.5588
2957.5452	64.0733
2957.6658	63.6946
2957.7861	63.4341
2957.9067	63.183
2958.0273	62.8319
2958.1477	62.3863
2958.2683	61.9551
2958.3889	61.6329
2958.5093	61.4127
2958.6299	61.2179
2958.7505	60.9962
2958.8708	60.7553
2958.9915	60.5104
2959.1121	60.2308
2959.2327	59.8728
2959.3530	59.4611
2959.4736	59.1005
2959.5942	58.8707
2959.7146	58.7171
2959.8352	58.4852
2959.9558	58.0756
2960.0762	57.5208
2960.1968	56.8351
2960.3174	55.7503
2960.4377	53.6596
2960.5583	49.935
2960.6790	44.4624
2960.7993	38.1913
2960.9199	33.5016
2961.0405	33.229
2961.1611	37.4658
2961.2815	43.3753
2961.4021	48.4404
2961.5227	51.6226
2961.6431	53.019
2961.7637	53.3063
2961.8843	53.1962
2962.0046	53.0605
2962.1252	52.8836
2962.2458	52.4448
2962.3662	51.4793
2962.4868	49.7155
2962.6074	46.8852
2962.7278	42.8177
2962.8484	37.6381
2962.9690	32.053
2963.0896	27.6748
2963.2100	26.7225
2963.3306	29.9259
2963.4512	35.5335
2963.5715	41.4897
2963.6921	46.6285
2963.8127	50.5231
2963.9331	53.1975
2964.0537	54.9252
2964.1743	56.0602
2964.2947	56.8871
2964.4153	57.5462
2964.5359	58.0708
2964.6563	58.484
2964.7769	58.8526
2964.8975	59.2515
2965.0181	59.6931
2965.1384	60.1122
2965.2590	60.4356
2965.3796	60.6656
2965.5000	60.8843
2965.6206	61.172
2965.7412	61.5285
2965.8616	61.883
2965.9822	62.1826
2966.1028	62.4603
2966.2231	62.8024
2966.3438	63.2511
2966.4644	63.7481
2966.5847	64.1774
2966.7053	64.4607
2966.8259	64.61
2966.9465	64.6961
2967.0669	64.7812
2967.1875	64.8942
2967.3081	65.0605
2967.4285	65.3271
2967.5491	65.7338
2967.6697	66.2552
2967.7900	66.7863
2967.9106	67.2041
2968.0313	67.452
2968.1516	67.5641
2968.2722	67.6144
2968.3928	67.6539
2968.5132	67.7029
2968.6338	67.7875
2968.7544	67.9564
2968.8750	68.2412
2968.9954	68.6038
2969.1160	68.943
2969.2366	69.1723
2969.3569	69.2968
2969.4775	69.4054
2969.5981	69.5781
2969.7185	69.801
2969.8391	69.9771
2969.9597	70.0234
2970.0801	69.9537
2970.2007	69.8662
2970.3213	69.8533
2970.4417	69.9252
2970.5623	70.0135
2970.6829	70.0436
2970.8035	70.0014
2970.9238	69.9373
2971.0444	69.9179
2971.1650	69.975
2971.2854	70.0916
2971.4060	70.2204
2971.5266	70.3116
2971.6470	70.3366
2971.7676	70.3009
2971.8882	70.2382
2972.0085	70.1822
2972.1292	70.1323
2972.2498	70.045
2972.3701	69.8662
2972.4907	69.5831
2972.6113	69.2442
2972.7319	68.928
2972.8523	68.6894
2972.9729	68.5325
2973.0935	68.4294
2973.2139	68.3555
2973.3345	68.3008
2973.4551	68.2471
2973.5754	68.1476
2973.6960	67.9418
2973.8167	67.5991
2973.9370	67.1477
2974.0576	66.6641
2974.1782	66.2333
2974.2986	65.9157
2974.4192	65.7321
2974.5398	65.6623
2974.6604	65.6463
2974.7808	65.603
2974.9014	65.4715
2975.0220	65.2551
2975.1423	65.021
2975.2629	64.8375
2975.3835	64.7026
2975.5039	64.5418
2975.6245	64.2851
2975.7451	63.9435
2975.8655	63.6025
2975.9861	63.3325
2976.1067	63.1134
2976.2271	62.8618
2976.3477	62.5347
2976.4683	62.1892
2976.5889	61.9211
2976.7092	61.7499
2976.8298	61.589
2976.9504	61.3433
2977.0708	61.0239
2977.1914	60.7369
2977.3120	60.5455
2977.4324	60.3684
2977.5530	60.0626
2977.6736	59.6004
2977.7939	59.1012
2977.9146	58.5884
2978.0352	57.6848
2978.1555	55.6391
2978.2761	51.7828
2978.3967	46.1727
2978.5173	40.1873
2978.6377	36.622
2978.7583	37.819
2978.8789	42.7699
2978.9993	48.4676
2979.1199	52.8021
2979.2405	55.18
2979.3608	56.0705
2979.4814	56.3045
2979.6021	56.4309
2979.7224	56.488
2979.8430	56.2601
2979.9636	55.6272
2980.0840	54.6091
2980.2046	53.1127
2980.3252	50.7475
2980.4458	47.0057
2980.5662	41.7396
2980.6868	35.6846
2980.8074	30.83
2980.9277	29.8782
2981.0483	33.5893
2981.1689	39.7678
2981.2893	45.972
2981.4099	50.8898
2981.5305	54.1853
2981.6509	56.1253
2981.7715	57.2304
2981.8921	57.9863
2982.0125	58.6643
2982.1331	59.301
2982.2537	59.815
2982.3743	60.1628
2982.4946	60.4137
2982.6152	60.7006
2982.7358	61.1006
2982.8562	61.5665
2982.9768	61.9749
2983.0974	62.2451
2983.2178	62.4109
2983.3384	62.581
2983.4590	62.8328
2983.5793	63.1491
2983.7000	63.4542
2983.8206	63.7019
2983.9409	63.9172
2984.0615	64.1573
2984.1821	64.4468
2984.3027	64.7594
2984.4231	65.0556
2984.5437	65.3202
2984.6643	65.5544
2984.7847	65.7439
2984.9053	65.8598
2985.0259	65.9041
2985.1462	65.9457
2985.2668	66.0869
2985.3875	66.3784
2985.5078	66.7683
2985.6284	67.1402
2985.7490	67.4048
2985.8694	67.5613
2985.9900	67.6771
2986.1106	67.8142
2986.2312	67.9795
2986.3516	68.1386
2986.4722	68.2618
2986.5928	68.3496
2986.7131	68.4217
2986.8337	68.4984
2986.9543	68.5986
2987.0747	68.7442
2987.1953	68.9464
2987.3159	69.1793
2987.4363	69.3785
2987.5569	69.4859
2987.6775	69.5041
2987.7979	69.4982
2987.9185	69.5376
2988.0391	69.6349
2988.1597	69.7378
2988.2800	69.7778
2988.4006	69.7235
2988.5212	69.5912
2988.6416	69.4123
2988.7622	69.2084
2988.8828	69.0014
2989.0032	68.8355
2989.1238	68.7661
2989.2444	68.8166
2989.3647	68.9462
2989.4854	69.0704
2989.6060	69.1179
2989.7263	69.0695
2989.8469	68.9487
2989.9675	68.7869
2990.0881	68.6105
2990.2085	68.4535
2990.3291	68.3614
2990.4497	68.3623
2990.5701	68.4287
2990.6907	68.482
2990.8113	68.4446
2990.9316	68.2956
2991.0522	68.0758
2991.1729	67.8409
2991.2932	67.6133
2991.4138	67.3822
2991.5344	67.1377
2991.6548	66.892
2991.7754	66.6642
2991.8960	66.4566
2992.0166	66.2606
2992.1370	66.0827
2992.2576	65.948
2992.3782	65.8645
2992.4985	65.7914
2992.6191	65.6625
2992.7397	65.4507
2992.8601	65.2043
2992.9807	65
2993.1013	64.8572
2993.2217	64.7145
2993.3423	64.5016
2993.4629	64.2273
2993.5833	63.9798
2993.7039	63.8251
2993.8245	63.7207
2993.9451	63.5578
2994.0654	63.2818
2994.1860	62.948
2994.3066	62.6439
2994.4270	62.3712
2994.5476	62.0576
2994.6682	61.7039
2994.7886	61.4424
2994.9092	61.3337
2995.0298	61.0405
2995.1501	59.7646
2995.2708	56.6721
2995.3914	51.6246
2995.5117	45.8371
2995.6323	41.9648
2995.7529	42.5164
2995.8735	47.0592
2995.9939	52.7377
2996.1145	57.1215
2996.2351	59.3408
2996.3555	59.8586
2996.4761	59.7271
2996.5967	59.7166
2996.7170	59.8809
2996.8376	59.8665
2996.9583	59.4904
2997.0786	58.9026
2997.1992	58.2031
2997.3198	56.9932
2997.4402	54.4453
2997.5608	49.9122
2997.6814	43.655
2997.8020	37.4121
2997.9224	34.3349
2998.0430	36.6041
2998.1636	42.5975
2998.2839	49.1818
2998.4045	54.4207
2998.5251	57.7588
2998.6455	59.5027
2998.7661	60.289
2998.8867	60.6777
2999.0071	60.9771
2999.1277	61.2836
2999.2483	61.6043
2999.3687	61.9385
2999.4893	62.2909
2999.6099	62.6572
2999.7305	63.0184
2999.8508	63.3486
2999.9714	63.6267
3000.0920	63.8472
3000.2124	64.0223
3000.3330	64.1742
3000.4536	64.3189
3000.5740	64.4571
3000.6946	64.5829
3000.8152	64.703
3000.9355	64.8468
3001.0562	65.0471
3001.1768	65.3092
3001.2971	65.5958
3001.4177	65.8507
3001.5383	66.042
3001.6589	66.1862
3001.7793	66.3272
3001.8999	66.4933
3002.0205	66.6726
3002.1409	66.8282
3002.2615	66.9366
3002.3821	67.0115
3002.5024	67.0924
3002.6230	67.2118
3002.7437	67.3678
3002.8640	67.5254
3002.9846	67.6434
3003.1052	67.7077
3003.2256	67.744
3003.3462	67.7992
3003.4668	67.9032
3003.5874	68.0414
3003.7078	68.1667
3003.8284	68.2454
3003.9490	68.2967
3004.0693	68.3836
3004.1899	68.5557
3004.3105	68.7936
3004.4309	69.0071
3004.5515	69.0989
3004.6721	69.0489
3004.7925	68.9409
3004.9131	68.8979
3005.0337	68.9855
3005.1541	69.1659
3005.2747	69.3268
3005.3953	69.3578
3005.5159	69.2221
3005.6362	68.9755
3005.7568	68.7289
3005.8774	68.5891
3005.9978	68.6136
3006.1184	68.7877
3006.2390	69.0279
3006.3594	69.2189
3006.4800	69.2691
3006.6006	69.1533
3006.7209	68.9162
3006.8416	68.6425
3006.9622	68.4148
3007.0825	68.2835
3007.2031	68.2589
3007.3237	68.3159
3007.4443	68.4036
3007.5647	68.4616
3007.6853	68.4491
3007.8059	68.369
3007.9263	68.2615
3008.0469	68.1686
3008.1675	68.0988
3008.2878	68.0228
3008.4084	67.8999
3008.5291	67.7102
3008.6494	67.4631
3008.7700	67.1885
3008.8906	66.9276
3009.0110	66.7273
3009.1316	66.6234
3009.2522	66.6045
3009.3728	66.5942
3009.4932	66.492
3009.6138	66.263
3009.7344	65.9896
3009.8547	65.8118
3009.9753	65.7909
3010.0959	65.8249
3010.2163	65.7307
3010.3369	65.4403
3010.4575	65.0945
3010.5779	64.9063
3010.6985	64.9379
3010.8191	65.0322
3010.9395	64.983
3011.0601	64.7735
3011.1807	64.5901
3011.3013	64.5053
3011.4216	64.1356
3011.5422	62.7206
3011.6628	59.6788
3011.7832	55.2589
3011.9038	50.8681
3012.0244	48.691
3012.1448	50.1632
3012.2654	54.4061
3012.3860	58.9964
3012.5063	62.0153
3012.6270	63.0648
3012.7476	62.9561
3012.8679	62.7181
3012.9885	62.7872
3013.1091	62.9335
3013.2297	62.7935
3013.3501	62.3816
3013.4707	62.0313
3013.5913	61.8035
3013.7117	61.0521
3013.8323	58.7178
3013.9529	54.1346
3014.0732	47.8387
3014.1938	42.0534
3014.3145	40.097
3014.4348	43.4327
3014.5554	49.7999
3014.6760	56.0223
3014.7964	60.2977
3014.9170	62.361
3015.0376	62.9397
3015.1582	63.0163
3015.2786	63.206
3015.3992	63.5634
3015.5198	63.8535
3015.6401	63.9535
3015.7607	63.9891
3015.8813	64.1439
3016.0017	64.4317
3016.1223	64.6945
3016.2429	64.7852
3016.3633	64.7285
3016.4839	64.7006
3016.6045	64.8508
3016.7249	65.1572
3016.8455	65.4614
3016.9661	65.6264
3017.0867	65.6539
3017.2070	65.6665
3017.3276	65.7893
3017.4482	66.0486
3017.5686	66.368
3017.6892	66.6374
3017.8098	66.7791
3017.9302	66.7766
3018.0508	66.6713
3018.1714	66.5466
3018.2917	66.4988
3018.4124	66.5921
3018.5330	66.8153
3018.6533	67.0851
3018.7739	67.3117
3018.8945	67.4681
3019.0151	67.5943
3019.1355	67.7307
3019.2561	67.8556
3019.3767	67.8996
3019.4971	67.8292
3019.6177	67.7101
3019.7383	67.6736
3019.8586	67.8087
3019.9792	68.0848
3020.0999	68.3801
3020.2202	68.5835
3020.3408	68.6701
3020.4614	68.6914
3020.5818	68.7124
3020.7024	68.7658
3020.8230	68.8551
3020.9436	68.9737
3021.0640	69.101
3021.1846	69.1872
3021.3052	69.1698
3021.4255	69.0266
3021.5461	68.8153
3021.6667	68.6448
3021.7871	68.5915
3021.9077	68.6396
3022.0283	68.7056
3022.1487	68.7226
3022.2693	68.6991
3022.3899	68.694
3022.5103	68.7422
3022.6309	68.8169
3022.7515	68.8623
3022.8721	68.8516
3022.9924	68.8058
3023.1130	68.7586
3023.2336	68.7145
3023.3540	68.6507
3023.4746	68.5517
3023.5952	68.4316
3023.7156	68.3189
3023.8362	68.2308
3023.9568	68.1697
3024.0771	68.1425
3024.1978	68.1656
3024.3184	68.2405
3024.4387	68.3305
3024.5593	68.3787
3024.6799	68.3535
3024.8005	68.2708
3024.9209	68.1642
3025.0415	68.0387
3025.1621	67.8676
3025.2825	67.6414
3025.4031	67.4069
3025.5237	67.2348
3025.6440	67.1427
3025.7646	67.0673
3025.8853	66.9454
3026.0056	66.817
3026.1262	66.8083
3026.2468	66.985
3026.3672	67.2275
3026.4878	67.2935
3026.6084	67.0522
3026.7290	66.6583
3026.8494	66.4217
3026.9700	66.415
3027.0906	66.1989
3027.2109	65.0298
3027.3315	62.4525
3027.4521	58.8616
3027.5725	55.6634
3027.6931	54.6394
3027.8137	56.4798
3027.9341	60.022
3028.0547	63.3576
3028.1753	65.259
3028.2957	65.6525
3028.4163	65.2992
3028.5369	65.0606
3028.6575	65.2266
3028.7778	65.4649
3028.8984	65.3717
3029.0190	64.9768
3029.1394	64.6765
3029.2600	64.6401
3029.3806	64.3235
3029.5010	62.6983
3029.6216	59.0521
3029.7422	53.8083
3029.8625	48.9272
3029.9832	47.1741
3030.1038	49.738
3030.2241	54.9171
3030.3447	60.0588
3030.4653	63.4759
3030.5859	64.87
3030.7063	65.0038
3030.8269	64.914
3030.9475	65.1128
3031.0679	65.457
3031.1885	65.6171
3031.3091	65.4991
3031.4294	65.2889
3031.5500	65.2141
3031.6707	65.3062
3031.7910	65.4201
3031.9116	65.4635
3032.0322	65.5104
3032.1526	65.6742
3032.2732	65.9432
3032.3938	66.1797
3032.5144	66.2675
3032.6348	66.2382
3032.7554	66.2326
3032.8760	66.3378
3032.9963	66.497
3033.1169	66.5915
3033.2375	66.5888
3033.3579	66.5862
3033.4785	66.6988
3033.5991	66.9221
3033.7195	67.1311
3033.8401	67.2092
3033.9607	67.1659
3034.0811	67.1287
3034.2017	67.2154
3034.3223	67.4191
3034.4429	67.6297
3034.5632	67.7539
3034.6838	67.7871
3034.8044	67.786
3034.9248	67.8018
3035.0454	67.8527
3035.1660	67.9419
3035.2864	68.0751
3035.4070	68.2439
3035.5276	68.3994
3035.6479	68.4682
3035.7686	68.4138
3035.8892	68.2825
3036.0095	68.1755
3036.1301	68.1718
3036.2507	68.2775
3036.3713	68.4391
3036.4917	68.5902
3036.6123	68.6884
3036.7329	68.7218
3036.8533	68.7007
3036.9739	68.6507
3037.0945	68.6046
3037.2148	68.5799
3037.3354	68.5618
3037.4561	68.517
3037.5764	68.4392
3037.6970	68.3757
3037.8176	68.3932
3037.9380	68.5086
3038.0586	68.6584
3038.1792	68.7532
3038.2998	68.7676
3038.4202	68.7668
3038.5408	68.831
3038.6614	68.9576
3038.7817	69.0528
3038.9023	69.0307
3039.0229	68.9133
3039.1433	68.8209
3039.2639	68.8542
3039.3845	68.9949
3039.5049	69.13
3039.6255	69.1689
3039.7461	69.127
3039.8665	69.0891
3039.9871	69.1032
3040.1077	69.1324
3040.2283	69.115
3040.3486	69.0497
3040.4692	69.0004
3040.5898	69.0103
3040.7102	69.0348
3040.8308	68.9836
3040.9514	68.83
3041.0718	68.656
3041.1924	68.5697
3041.3130	68.577
3041.4333	68.5624
3041.5540	68.4195
3041.6746	68.1911
3041.7949	68.0415
3041.9155	68.0411
3042.0361	67.9695
3042.1567	67.3775
3042.2771	65.917
3042.3977	63.7205
3042.5183	61.5494
3042.6387	60.4639
3042.7593	61.0695
3042.8799	63.0061
3043.0002	65.2678
3043.1208	66.945
3043.2415	67.6994
3043.3618	67.7756
3043.4824	67.6531
3043.6030	67.6076
3043.7234	67.5588
3043.8440	67.3253
3043.9646	66.9663
3044.0852	66.7992
3044.2056	67.0043
3044.3262	67.2055
3044.4468	66.5525
3044.5671	64.3259
3044.6877	60.6308
3044.8083	56.7603
3044.9287	54.7609
3045.0493	55.8956
3045.1699	59.378
3045.2903	63.216
3045.4109	65.8492
3045.5315	66.8439
3045.6519	66.7186
3045.7725	66.3405
3045.8931	66.2757
3046.0137	66.5319
3046.1340	66.8167
3046.2546	66.9385
3046.3752	66.9527
3046.4956	67.0166
3046.6162	67.1911
3046.7368	67.4043
3046.8572	67.5598
3046.9778	67.6323
3047.0984	67.6581
3047.2188	67.6701
3047.3394	67.6711
3047.4600	67.6645
3047.5803	67.6741
3047.7009	67.7155
3047.8215	67.7575
3047.9421	67.7389
3048.0625	67.6326
3048.1831	67.4817
3048.3037	67.3579
3048.4241	67.2928
3048.5447	67.2634
3048.6653	67.2518
3048.7856	67.3
3048.9063	67.4736
3049.0269	67.764
3049.1472	68.0514
3049.2678	68.1906
3049.3884	68.1389
3049.5088	68.0029
3049.6294	67.9503
3049.7500	68.0661
3049.8706	68.2917
3049.9910	68.4975
3050.1116	68.603
3050.2322	68.6258
3050.3525	68.6288
3050.4731	68.6438
3050.5938	68.6547
3050.7141	68.6437
3050.8347	68.6348
3050.9553	68.6832
3051.0757	68.8273
3051.1963	69.0553
3051.3169	69.3101
3051.4373	69.5188
3051.5579	69.6213
3051.6785	69.5937
3051.7991	69.4679
3051.9194	69.3329
3052.0400	69.2948
3052.1606	69.4026
3052.2810	69.5979
3052.4016	69.7485
3052.5222	69.7512
3052.6426	69.6154
3052.7632	69.4535
3052.8838	69.3879
3053.0042	69.4576
3053.1248	69.6055
3053.2454	69.7398
3053.3657	69.7983
3053.4863	69.7697
3053.6069	69.6813
3053.7275	69.5856
3053.8479	69.5481
3053.9685	69.6144
3054.0891	69.7601
3054.2095	69.8782
3054.3301	69.8506
3054.4507	69.6635
3054.5710	69.4524
3054.6917	69.408
3054.8123	69.6077
3054.9326	69.9274
3055.0532	70.1392
3055.1738	70.1158
3055.2942	69.9398
3055.4148	69.8124
3055.5354	69.8523
3055.6560	69.9867
3055.7764	70.0472
3055.8970	69.9647
3056.0176	69.851
3056.1379	69.866
3056.2585	69.971
3056.3792	69.84
3056.4995	69.1165
3056.6201	67.7945
3056.7407	66.3385
3056.8611	65.4534
3056.9817	65.6348
3057.1023	66.7698
3057.2227	68.1824
3057.3433	69.1486
3057.4639	69.3918
3057.5845	69.1778
3057.7048	69.0085
3057.8254	69.163
3057.9460	69.4802
3058.0664	69.596
3058.1870	69.3665
3058.3076	69.0388
3058.4280	68.9759
3058.5486	69.1668
3058.6692	69.0577
3058.7896	67.9466
3058.9102	65.618
3059.0308	62.763
3059.1511	60.7895
3059.2717	60.8591
3059.3923	62.8927
3059.5129	65.7086
3059.6333	68.015
3059.7539	69.1654
3059.8745	69.3059
3059.9949	69.0287
3060.1155	68.8367
3060.2361	68.853
3060.3564	68.9372
3060.4771	68.9683
3060.5977	68.9781
3060.7180	69.0614
3060.8386	69.2245
3060.9592	69.356
3061.0796	69.3428
3061.2002	69.1909
3061.3208	69.0233
3061.4414	68.9654
3061.5618	69.0434
3061.6824	69.1769
3061.8030	69.2514
3061.9233	69.1954
3062.0439	69.0169
3062.1646	68.7924
3062.2849	68.6269
3062.4055	68.6017
3062.5261	68.7321
3062.6465	68.9572
3062.7671	69.1798
3062.8877	69.3352
3063.0081	69.4321
3063.1287	69.5261
3063.2493	69.6524
3063.3699	69.7836
3063.4902	69.8554
3063.6108	69.8353
3063.7314	69.7603
3063.8518	69.7046
3063.9724	69.7176
3064.0930	69.7916
3064.2134	69.8794
3064.3340	69.9405
3064.4546	69.9715
3064.5750	69.9897
3064.6956	69.9984
3064.8162	69.9801
3064.9365	69.9194
3065.0571	69.8293
3065.1777	69.7561
3065.2983	69.7567
3065.4187	69.8605
3065.5393	70.0406
3065.6599	70.2205
3065.7803	70.3211
3065.9009	70.3223
3066.0215	70.2899
3066.1418	70.3337
3066.2625	70.5156
3066.3831	70.7827
3066.5034	70.994
3066.6240	71.0265
3066.7446	70.873
3066.8650	70.6565
3066.9856	70.5309
3067.1062	70.5468
3067.2268	70.6295
3067.3472	70.6843
3067.4678	70.6914
3067.5884	70.7028
3067.7087	70.7667
3067.8293	70.8683
3067.9500	70.9508
3068.0703	70.9912
3068.1909	71.0351
3068.3115	71.1499
3068.4319	71.3465
3068.5525	71.5585
3068.6731	71.6973
3068.7935	71.7258
3068.9141	71.6755
3069.0347	71.6041
3069.1553	71.5482
3069.2756	71.5227
3069.3962	71.546
3069.5168	71.6384
3069.6372	71.7786
3069.7578	71.8714
3069.8784	71.7861
3069.9988	71.4546
3070.1194	70.9495
3070.2400	70.4739
3070.3604	70.2568
3070.4810	70.413
3070.6016	70.8624
3070.7219	71.3717
3070.8425	71.6933
3070.9631	71.7077
3071.0837	71.4898
3071.2041	71.2578
3071.3247	71.2257
3071.4453	71.4485
3071.5657	71.7844
3071.6863	72.0194
3071.8069	72.0447
3071.9272	71.9177
3072.0479	71.7403
3072.1685	71.4773
3072.2888	70.926
3072.4094	69.9158
3072.5300	68.5817
3072.6504	67.4461
3072.7710	67.1406
3072.8916	67.9136
3073.0122	69.3903
3073.1326	70.8542
3073.2532	71.7499
3073.3738	71.9721
3073.4941	71.7938
3073.6147	71.5639
3073.7354	71.4481
3073.8557	71.4109
3073.9763	71.377
3074.0969	71.3523
3074.2173	71.3884
3074.3379	71.4737
3074.4585	71.5086
3074.5789	71.4046
3074.6995	71.1876
3074.8201	70.9857
3074.9407	70.9177
3075.0610	71.0016
3075.1816	71.1699
3075.3022	71.3556
3075.4226	71.5366
3075.5432	71.6973
3075.6638	71.7788
3075.7842	71.707
3075.9048	71.4835
3076.0254	71.2279
3076.1458	71.0953
3076.2664	71.1338
3076.3870	71.2287
3076.5073	71.2048
3076.6279	70.9949
3076.7485	70.7074
3076.8691	70.5278
3076.9895	70.5556
3077.1101	70.7349
3077.2307	70.9308
3077.3511	71.0614
3077.4717	71.149
3077.5923	71.2546
3077.7126	71.3834
3077.8333	71.4654
3077.9539	71.4348
3078.0742	71.3146
3078.1948	71.2053
3078.3154	71.1911
3078.4358	71.2719
3078.5564	71.3792
3078.6770	71.4464
3078.7976	71.4628
3078.9180	71.4634
3079.0386	71.4765
3079.1592	71.4947
3079.2795	71.4974
3079.4001	71.4899
3079.5208	71.5078
3079.6411	71.5767
3079.7617	71.6756
3079.8823	71.7545
3080.0027	71.7871
3080.1233	71.7985
3080.2439	71.8383
3080.3643	71.9286
3080.4849	72.0386
3080.6055	72.1185
3080.7261	72.1596
3080.8464	72.2103
3080.9670	72.3274
3081.0876	72.5044
3081.2080	72.6544
3081.3286	72.6784
3081.4492	72.5653
3081.5696	72.4167
3081.6902	72.3628
3081.8108	72.4544
3081.9312	72.6295
3082.0518	72.7733
3082.1724	72.8156
3082.2927	72.7798
3082.4133	72.7392
3082.5339	72.7242
3082.6545	72.677
3082.7749	72.5087
3082.8955	72.2049
3083.0161	71.8738
3083.1365	71.687
3083.2571	71.7566
3083.3777	72.0446
3083.4980	72.3859
3083.6187	72.6163
3083.7393	72.6933
3083.8596	72.71
3083.9802	72.7992
3084.1008	73.0068
3084.2212	73.2428
3084.3418	73.359
3084.4624	73.2836
3084.5830	73.0844
3084.7034	72.9019
3084.8240	72.8125
3084.9446	72.7479
3085.0649	72.5586
3085.1855	72.171
3085.3062	71.6951
3085.4265	71.3761
3085.5471	71.4167
3085.6677	71.8075
3085.7881	72.325
3085.9087	72.7115
3086.0293	72.8643
3086.1497	72.8676
3086.2703	72.8706
3086.3909	72.9464
3086.5115	73.0525
3086.6318	73.1103
3086.7524	73.1055
3086.8730	73.1005
3086.9934	73.1571
3087.1140	73.2607
3087.2346	73.3304
3087.3550	73.302
3087.4756	73.1908
3087.5962	73.0735
3087.7166	73.0174
3087.8372	73.0302
3087.9578	73.0716
3088.0781	73.1044
3088.1987	73.1288
3088.3193	73.1696
3088.4399	73.2414
3088.5603	73.3322
3088.6809	73.4152
3088.8015	73.4667
3088.9219	73.4703
3089.0425	73.411
3089.1631	73.2804
3089.2834	73.0923
3089.4041	72.8925
3089.5247	72.7444
3089.6450	72.6992
3089.7656	72.7706
3089.8862	72.9307
3090.0066	73.1232
3090.1272	73.2838
3090.2478	73.3595
3090.3684	73.3264
3090.4888	73.2028
3090.6094	73.0455
3090.7300	72.9215
3090.8503	72.8738
3090.9709	72.9074
3091.0916	73
3091.2119	73.1233
3091.3325	73.2522
3091.4531	73.3639
3091.5735	73.4389
3091.6941	73.4721
3091.8147	73.4826
3091.9351	73.5015
3092.0557	73.5461
3092.1763	73.6051
3092.2969	73.6544
3092.4172	73.683
3092.5378	73.6967
3092.6584	73.6938
3092.7788	73.6453
3092.8994	73.5175
3093.0200	73.3227
3093.1404	73.1408
3093.2610	73.0741
3093.3816	73.1641
3093.5020	73.3491
3093.6226	73.5147
3093.7432	73.5975
3093.8638	73.6348
3093.9841	73.7107
3094.1047	73.8633
3094.2253	74.0479
3094.3457	74.1841
3094.4663	74.2332
3094.5869	74.2192
3094.7073	74.1793
3094.8279	74.117
3094.9485	74.0191
3095.0688	73.9116
3095.1895	73.8706
3095.3101	73.9557
3095.4304	74.1353
3095.5510	74.2925
3095.6716	74.3156
3095.7922	74.2025
3095.9126	74.0743
3096.0332	74.0543
3096.1538	74.1441
3096.2742	74.2489
3096.3948	74.3009
3096.5154	74.3331
3096.6357	74.4367
3096.7563	74.6479
3096.8770	74.8758
3096.9973	74.9595
3097.1179	74.8076
3097.2385	74.4797
3097.3589	74.1408
3097.4795	73.9458
3097.6001	73.9519
3097.7207	74.113
3097.8411	74.3378
3097.9617	74.5495
3098.0823	74.7073
3098.2026	74.7996
3098.3232	74.8362
3098.4438	74.8398
3098.5642	74.8301
3098.6848	74.807
3098.8054	74.7562
3098.9258	74.6811
3099.0464	74.6284
3099.1670	74.6711
3099.2874	74.8542
3099.4080	75.1447
3099.5286	75.4348
3099.6492	75.6121
3099.7695	75.6432
3099.8901	75.5829
3100.0107	75.5063